Timestamp,ECG
20/05/2016 09:48:17.435,3422
20/05/2016 09:48:17.439,3413
20/05/2016 09:48:17.443,3403
20/05/2016 09:48:17.447,3392
20/05/2016 09:48:17.451,3380
20/05/2016 09:48:17.455,3368
20/05/2016 09:48:17.459,3356
20/05/2016 09:48:17.463,3343
20/05/2016 09:48:17.467,3327
20/05/2016 09:48:17.471,3307
20/05/2016 09:48:17.475,3282
20/05/2016 09:48:17.479,3253
20/05/2016 09:48:17.483,3223
20/05/2016 09:48:17.487,3201
20/05/2016 09:48:17.491,3193
20/05/2016 09:48:17.495,3205
20/05/2016 09:48:17.499,3234
20/05/2016 09:48:17.503,3267
20/05/2016 09:48:17.507,3281
20/05/2016 09:48:17.511,3259
20/05/2016 09:48:17.515,3197
20/05/2016 09:48:17.519,3107
20/05/2016 09:48:17.523,3012
20/05/2016 09:48:17.527,2934
20/05/2016 09:48:17.531,2885
20/05/2016 09:48:17.535,2862
20/05/2016 09:48:17.539,2852
20/05/2016 09:48:17.543,2845
20/05/2016 09:48:17.547,2832
20/05/2016 09:48:17.551,2816
20/05/2016 09:48:17.555,2800
20/05/2016 09:48:17.559,2789
20/05/2016 09:48:17.563,2785
20/05/2016 09:48:17.567,2788
20/05/2016 09:48:17.571,2793
20/05/2016 09:48:17.575,2798
20/05/2016 09:48:17.579,2800
20/05/2016 09:48:17.583,2800
20/05/2016 09:48:17.587,2802
20/05/2016 09:48:17.591,2804
20/05/2016 09:48:17.595,2808
20/05/2016 09:48:17.599,2811
20/05/2016 09:48:17.603,2814
20/05/2016 09:48:17.607,2815
20/05/2016 09:48:17.611,2814
20/05/2016 09:48:17.615,2811
20/05/2016 09:48:17.619,2808
20/05/2016 09:48:17.623,2805
20/05/2016 09:48:17.627,2804
20/05/2016 09:48:17.631,2805
20/05/2016 09:48:17.635,2806
20/05/2016 09:48:17.639,2807
20/05/2016 09:48:17.643,2807
20/05/2016 09:48:17.647,2806
20/05/2016 09:48:17.651,2805
20/05/2016 09:48:17.655,2805
20/05/2016 09:48:17.659,2805
20/05/2016 09:48:17.663,2805
20/05/2016 09:48:17.667,2804
20/05/2016 09:48:17.671,2801
20/05/2016 09:48:17.675,2798
20/05/2016 09:48:17.679,2795
20/05/2016 09:48:17.683,2793
20/05/2016 09:48:17.687,2792
20/05/2016 09:48:17.691,2792
20/05/2016 09:48:17.695,2792
20/05/2016 09:48:17.699,2793
20/05/2016 09:48:17.703,2794
20/05/2016 09:48:17.707,2795
20/05/2016 09:48:17.711,2794
20/05/2016 09:48:17.715,2790
20/05/2016 09:48:17.719,2785
20/05/2016 09:48:17.723,2778
20/05/2016 09:48:17.727,2773
20/05/2016 09:48:17.731,2769
20/05/2016 09:48:17.735,2767
20/05/2016 09:48:17.739,2763
20/05/2016 09:48:17.743,2759
20/05/2016 09:48:17.747,2753
20/05/2016 09:48:17.751,2747
20/05/2016 09:48:17.755,2741
20/05/2016 09:48:17.759,2737
20/05/2016 09:48:17.763,2734
20/05/2016 09:48:17.767,2732
20/05/2016 09:48:17.771,2729
20/05/2016 09:48:17.775,2727
20/05/2016 09:48:17.779,2723
20/05/2016 09:48:17.783,2718
20/05/2016 09:48:17.787,2711
20/05/2016 09:48:17.791,2703
20/05/2016 09:48:17.795,2695
20/05/2016 09:48:17.799,2690
20/05/2016 09:48:17.803,2687
20/05/2016 09:48:17.807,2686
20/05/2016 09:48:17.811,2687
20/05/2016 09:48:17.815,2687
20/05/2016 09:48:17.819,2688
20/05/2016 09:48:17.823,2688
20/05/2016 09:48:17.827,2688
20/05/2016 09:48:17.831,2687
20/05/2016 09:48:17.835,2687
20/05/2016 09:48:17.839,2686
20/05/2016 09:48:17.843,2684
20/05/2016 09:48:17.847,2681
20/05/2016 09:48:17.851,2677
20/05/2016 09:48:17.855,2674
20/05/2016 09:48:17.859,2671
20/05/2016 09:48:17.863,2668
20/05/2016 09:48:17.867,2666
20/05/2016 09:48:17.871,2663
20/05/2016 09:48:17.875,2661
20/05/2016 09:48:17.879,2657
20/05/2016 09:48:17.883,2654
20/05/2016 09:48:17.887,2651
20/05/2016 09:48:17.891,2647
20/05/2016 09:48:17.895,2643
20/05/2016 09:48:17.899,2639
20/05/2016 09:48:17.903,2635
20/05/2016 09:48:17.907,2632
20/05/2016 09:48:17.911,2629
20/05/2016 09:48:17.915,2627
20/05/2016 09:48:17.919,2624
20/05/2016 09:48:17.923,2622
20/05/2016 09:48:17.927,2620
20/05/2016 09:48:17.931,2617
20/05/2016 09:48:17.935,2615
20/05/2016 09:48:17.939,2614
20/05/2016 09:48:17.943,2614
20/05/2016 09:48:17.947,2614
20/05/2016 09:48:17.951,2607
20/05/2016 09:48:17.955,2581
20/05/2016 09:48:17.959,2532
20/05/2016 09:48:17.963,2454
20/05/2016 09:48:17.967,2355
20/05/2016 09:48:17.971,2251
20/05/2016 09:48:17.975,2158
20/05/2016 09:48:17.979,2090
20/05/2016 09:48:17.983,2051
20/05/2016 09:48:17.987,2040
20/05/2016 09:48:17.991,2048
20/05/2016 09:48:17.995,2071
20/05/2016 09:48:17.999,2100
20/05/2016 09:48:18.003,2129
20/05/2016 09:48:18.007,2153
20/05/2016 09:48:18.011,2164
20/05/2016 09:48:18.015,2165
20/05/2016 09:48:18.019,2158
20/05/2016 09:48:18.023,2147
20/05/2016 09:48:18.027,2138
20/05/2016 09:48:18.031,2134
20/05/2016 09:48:18.035,2134
20/05/2016 09:48:18.039,2136
20/05/2016 09:48:18.043,2139
20/05/2016 09:48:18.047,2141
20/05/2016 09:48:18.051,2143
20/05/2016 09:48:18.055,2144
20/05/2016 09:48:18.059,2146
20/05/2016 09:48:18.063,2148
20/05/2016 09:48:18.067,2150
20/05/2016 09:48:18.071,2154
20/05/2016 09:48:18.075,2158
20/05/2016 09:48:18.079,2165
20/05/2016 09:48:18.083,2172
20/05/2016 09:48:18.087,2181
20/05/2016 09:48:18.091,2188
20/05/2016 09:48:18.095,2194
20/05/2016 09:48:18.099,2196
20/05/2016 09:48:18.103,2195
20/05/2016 09:48:18.107,2193
20/05/2016 09:48:18.111,2193
20/05/2016 09:48:18.115,2200
20/05/2016 09:48:18.119,2222
20/05/2016 09:48:18.123,2264
20/05/2016 09:48:18.127,2324
20/05/2016 09:48:18.131,2390
20/05/2016 09:48:18.135,2438
20/05/2016 09:48:18.139,2450
20/05/2016 09:48:18.143,2421
20/05/2016 09:48:18.147,2362
20/05/2016 09:48:18.151,2298
20/05/2016 09:48:18.155,2251
20/05/2016 09:48:18.159,2232
20/05/2016 09:48:18.163,2237
20/05/2016 09:48:18.167,2254
20/05/2016 09:48:18.171,2271
20/05/2016 09:48:18.175,2283
20/05/2016 09:48:18.179,2291
20/05/2016 09:48:18.183,2295
20/05/2016 09:48:18.187,2299
20/05/2016 09:48:18.191,2301
20/05/2016 09:48:18.195,2302
20/05/2016 09:48:18.199,2303
20/05/2016 09:48:18.203,2305
20/05/2016 09:48:18.207,2307
20/05/2016 09:48:18.211,2310
20/05/2016 09:48:18.215,2315
20/05/2016 09:48:18.219,2318
20/05/2016 09:48:18.223,2321
20/05/2016 09:48:18.227,2323
20/05/2016 09:48:18.231,2324
20/05/2016 09:48:18.235,2325
20/05/2016 09:48:18.239,2326
20/05/2016 09:48:18.243,2327
20/05/2016 09:48:18.247,2329
20/05/2016 09:48:18.251,2331
20/05/2016 09:48:18.255,2333
20/05/2016 09:48:18.259,2335
20/05/2016 09:48:18.263,2336
20/05/2016 09:48:18.267,2337
20/05/2016 09:48:18.271,2337
20/05/2016 09:48:18.275,2337
20/05/2016 09:48:18.279,2337
20/05/2016 09:48:18.283,2337
20/05/2016 09:48:18.287,2338
20/05/2016 09:48:18.291,2338
20/05/2016 09:48:18.295,2339
20/05/2016 09:48:18.299,2339
20/05/2016 09:48:18.303,2340
20/05/2016 09:48:18.307,2341
20/05/2016 09:48:18.311,2342
20/05/2016 09:48:18.315,2344
20/05/2016 09:48:18.319,2345
20/05/2016 09:48:18.323,2346
20/05/2016 09:48:18.327,2348
20/05/2016 09:48:18.331,2349
20/05/2016 09:48:18.335,2349
20/05/2016 09:48:18.339,2349
20/05/2016 09:48:18.343,2348
20/05/2016 09:48:18.347,2346
20/05/2016 09:48:18.351,2346
20/05/2016 09:48:18.355,2347
20/05/2016 09:48:18.359,2348
20/05/2016 09:48:18.363,2349
20/05/2016 09:48:18.367,2348
20/05/2016 09:48:18.371,2347
20/05/2016 09:48:18.375,2344
20/05/2016 09:48:18.379,2340
20/05/2016 09:48:18.383,2335
20/05/2016 09:48:18.387,2330
20/05/2016 09:48:18.391,2324
20/05/2016 09:48:18.395,2318
20/05/2016 09:48:18.399,2314
20/05/2016 09:48:18.403,2310
20/05/2016 09:48:18.407,2308
20/05/2016 09:48:18.411,2307
20/05/2016 09:48:18.415,2305
20/05/2016 09:48:18.419,2303
20/05/2016 09:48:18.423,2300
20/05/2016 09:48:18.427,2297
20/05/2016 09:48:18.431,2294
20/05/2016 09:48:18.435,2292
20/05/2016 09:48:18.439,2291
20/05/2016 09:48:18.443,2290
20/05/2016 09:48:18.447,2290
20/05/2016 09:48:18.451,2289
20/05/2016 09:48:18.455,2287
20/05/2016 09:48:18.459,2285
20/05/2016 09:48:18.463,2283
20/05/2016 09:48:18.467,2281
20/05/2016 09:48:18.471,2280
20/05/2016 09:48:18.475,2278
20/05/2016 09:48:18.479,2277
20/05/2016 09:48:18.483,2277
20/05/2016 09:48:18.487,2277
20/05/2016 09:48:18.491,2277
20/05/2016 09:48:18.495,2277
20/05/2016 09:48:18.499,2277
20/05/2016 09:48:18.503,2277
20/05/2016 09:48:18.507,2277
20/05/2016 09:48:18.511,2277
20/05/2016 09:48:18.515,2278
20/05/2016 09:48:18.519,2278
20/05/2016 09:48:18.523,2278
20/05/2016 09:48:18.527,2277
20/05/2016 09:48:18.531,2276
20/05/2016 09:48:18.535,2274
20/05/2016 09:48:18.539,2272
20/05/2016 09:48:18.543,2269
20/05/2016 09:48:18.547,2267
20/05/2016 09:48:18.551,2265
20/05/2016 09:48:18.555,2263
20/05/2016 09:48:18.559,2262
20/05/2016 09:48:18.563,2263
20/05/2016 09:48:18.567,2264
20/05/2016 09:48:18.571,2265
20/05/2016 09:48:18.575,2265
20/05/2016 09:48:18.579,2265
20/05/2016 09:48:18.583,2263
20/05/2016 09:48:18.587,2261
20/05/2016 09:48:18.591,2259
20/05/2016 09:48:18.595,2257
20/05/2016 09:48:18.599,2256
20/05/2016 09:48:18.603,2255
20/05/2016 09:48:18.607,2256
20/05/2016 09:48:18.611,2256
20/05/2016 09:48:18.615,2257
20/05/2016 09:48:18.619,2257
20/05/2016 09:48:18.623,2257
20/05/2016 09:48:18.627,2257
20/05/2016 09:48:18.631,2256
20/05/2016 09:48:18.635,2256
20/05/2016 09:48:18.639,2258
20/05/2016 09:48:18.643,2261
20/05/2016 09:48:18.647,2262
20/05/2016 09:48:18.651,2262
20/05/2016 09:48:18.655,2258
20/05/2016 09:48:18.659,2253
20/05/2016 09:48:18.663,2248
20/05/2016 09:48:18.667,2245
20/05/2016 09:48:18.671,2244
20/05/2016 09:48:18.675,2243
20/05/2016 09:48:18.679,2243
20/05/2016 09:48:18.683,2243
20/05/2016 09:48:18.687,2242
20/05/2016 09:48:18.691,2241
20/05/2016 09:48:18.695,2239
20/05/2016 09:48:18.699,2237
20/05/2016 09:48:18.703,2234
20/05/2016 09:48:18.707,2230
20/05/2016 09:48:18.711,2228
20/05/2016 09:48:18.715,2226
20/05/2016 09:48:18.719,2225
20/05/2016 09:48:18.723,2225
20/05/2016 09:48:18.727,2226
20/05/2016 09:48:18.731,2228
20/05/2016 09:48:18.735,2229
20/05/2016 09:48:18.739,2228
20/05/2016 09:48:18.743,2223
20/05/2016 09:48:18.747,2214
20/05/2016 09:48:18.751,2206
20/05/2016 09:48:18.755,2204
20/05/2016 09:48:18.759,2217
20/05/2016 09:48:18.763,2253
20/05/2016 09:48:18.767,2310
20/05/2016 09:48:18.771,2374
20/05/2016 09:48:18.775,2424
20/05/2016 09:48:18.779,2440
20/05/2016 09:48:18.783,2413
20/05/2016 09:48:18.787,2353
20/05/2016 09:48:18.791,2283
20/05/2016 09:48:18.795,2226
20/05/2016 09:48:18.799,2197
20/05/2016 09:48:18.803,2193
20/05/2016 09:48:18.807,2203
20/05/2016 09:48:18.811,2214
20/05/2016 09:48:18.815,2220
20/05/2016 09:48:18.819,2221
20/05/2016 09:48:18.823,2219
20/05/2016 09:48:18.827,2218
20/05/2016 09:48:18.831,2219
20/05/2016 09:48:18.835,2222
20/05/2016 09:48:18.839,2224
20/05/2016 09:48:18.843,2226
20/05/2016 09:48:18.847,2226
20/05/2016 09:48:18.851,2224
20/05/2016 09:48:18.855,2223
20/05/2016 09:48:18.859,2222
20/05/2016 09:48:18.863,2223
20/05/2016 09:48:18.867,2224
20/05/2016 09:48:18.871,2225
20/05/2016 09:48:18.875,2225
20/05/2016 09:48:18.879,2226
20/05/2016 09:48:18.883,2226
20/05/2016 09:48:18.887,2226
20/05/2016 09:48:18.891,2226
20/05/2016 09:48:18.895,2226
20/05/2016 09:48:18.899,2226
20/05/2016 09:48:18.903,2227
20/05/2016 09:48:18.907,2228
20/05/2016 09:48:18.911,2229
20/05/2016 09:48:18.915,2229
20/05/2016 09:48:18.919,2229
20/05/2016 09:48:18.923,2228
20/05/2016 09:48:18.927,2228
20/05/2016 09:48:18.931,2228
20/05/2016 09:48:18.935,2230
20/05/2016 09:48:18.939,2234
20/05/2016 09:48:18.943,2238
20/05/2016 09:48:18.947,2243
20/05/2016 09:48:18.951,2246
20/05/2016 09:48:18.955,2247
20/05/2016 09:48:18.959,2246
20/05/2016 09:48:18.963,2247
20/05/2016 09:48:18.967,2248
20/05/2016 09:48:18.971,2252
20/05/2016 09:48:18.975,2257
20/05/2016 09:48:18.979,2261
20/05/2016 09:48:18.983,2264
20/05/2016 09:48:18.987,2266
20/05/2016 09:48:18.991,2267
20/05/2016 09:48:18.995,2268
20/05/2016 09:48:18.999,2268
20/05/2016 09:48:19.003,2267
20/05/2016 09:48:19.007,2266
20/05/2016 09:48:19.011,2262
20/05/2016 09:48:19.015,2257
20/05/2016 09:48:19.019,2251
20/05/2016 09:48:19.023,2243
20/05/2016 09:48:19.027,2236
20/05/2016 09:48:19.031,2230
20/05/2016 09:48:19.035,2224
20/05/2016 09:48:19.039,2217
20/05/2016 09:48:19.043,2212
20/05/2016 09:48:19.047,2209
20/05/2016 09:48:19.051,2207
20/05/2016 09:48:19.055,2208
20/05/2016 09:48:19.059,2207
20/05/2016 09:48:19.063,2205
20/05/2016 09:48:19.067,2201
20/05/2016 09:48:19.071,2196
20/05/2016 09:48:19.075,2193
20/05/2016 09:48:19.079,2193
20/05/2016 09:48:19.083,2193
20/05/2016 09:48:19.087,2193
20/05/2016 09:48:19.091,2192
20/05/2016 09:48:19.095,2189
20/05/2016 09:48:19.099,2187
20/05/2016 09:48:19.103,2185
20/05/2016 09:48:19.107,2186
20/05/2016 09:48:19.111,2187
20/05/2016 09:48:19.115,2187
20/05/2016 09:48:19.119,2185
20/05/2016 09:48:19.123,2179
20/05/2016 09:48:19.127,2171
20/05/2016 09:48:19.131,2163
20/05/2016 09:48:19.135,2159
20/05/2016 09:48:19.139,2158
20/05/2016 09:48:19.143,2158
20/05/2016 09:48:19.147,2155
20/05/2016 09:48:19.151,2146
20/05/2016 09:48:19.155,2133
20/05/2016 09:48:19.159,2115
20/05/2016 09:48:19.163,2098
20/05/2016 09:48:19.167,2084
20/05/2016 09:48:19.171,2076
20/05/2016 09:48:19.175,2074
20/05/2016 09:48:19.179,2076
20/05/2016 09:48:19.183,2078
20/05/2016 09:48:19.187,2073
20/05/2016 09:48:19.191,2060
20/05/2016 09:48:19.195,2043
20/05/2016 09:48:19.199,2024
20/05/2016 09:48:19.203,2014
20/05/2016 09:48:19.207,2016
20/05/2016 09:48:19.211,2026
20/05/2016 09:48:19.215,2038
20/05/2016 09:48:19.219,2046
20/05/2016 09:48:19.223,2050
20/05/2016 09:48:19.227,2053
20/05/2016 09:48:19.231,2057
20/05/2016 09:48:19.235,2062
20/05/2016 09:48:19.239,2067
20/05/2016 09:48:19.243,2070
20/05/2016 09:48:19.247,2072
20/05/2016 09:48:19.251,2072
20/05/2016 09:48:19.255,2073
20/05/2016 09:48:19.259,2075
20/05/2016 09:48:19.263,2079
20/05/2016 09:48:19.267,2082
20/05/2016 09:48:19.271,2084
20/05/2016 09:48:19.275,2087
20/05/2016 09:48:19.279,2091
20/05/2016 09:48:19.283,2096
20/05/2016 09:48:19.287,2103
20/05/2016 09:48:19.291,2110
20/05/2016 09:48:19.295,2116
20/05/2016 09:48:19.299,2119
20/05/2016 09:48:19.303,2120
20/05/2016 09:48:19.307,2117
20/05/2016 09:48:19.311,2112
20/05/2016 09:48:19.315,2106
20/05/2016 09:48:19.319,2102
20/05/2016 09:48:19.323,2101
20/05/2016 09:48:19.327,2103
20/05/2016 09:48:19.331,2108
20/05/2016 09:48:19.335,2114
20/05/2016 09:48:19.339,2119
20/05/2016 09:48:19.343,2122
20/05/2016 09:48:19.347,2123
20/05/2016 09:48:19.351,2122
20/05/2016 09:48:19.355,2123
20/05/2016 09:48:19.359,2125
20/05/2016 09:48:19.363,2130
20/05/2016 09:48:19.367,2136
20/05/2016 09:48:19.371,2143
20/05/2016 09:48:19.375,2149
20/05/2016 09:48:19.379,2154
20/05/2016 09:48:19.383,2157
20/05/2016 09:48:19.387,2159
20/05/2016 09:48:19.391,2160
20/05/2016 09:48:19.395,2159
20/05/2016 09:48:19.399,2156
20/05/2016 09:48:19.403,2151
20/05/2016 09:48:19.407,2150
20/05/2016 09:48:19.411,2158
20/05/2016 09:48:19.415,2184
20/05/2016 09:48:19.419,2232
20/05/2016 09:48:19.423,2298
20/05/2016 09:48:19.427,2360
20/05/2016 09:48:19.431,2397
20/05/2016 09:48:19.435,2390
20/05/2016 09:48:19.439,2341
20/05/2016 09:48:19.443,2269
20/05/2016 09:48:19.447,2201
20/05/2016 09:48:19.451,2156
20/05/2016 09:48:19.455,2139
20/05/2016 09:48:19.459,2143
20/05/2016 09:48:19.463,2154
20/05/2016 09:48:19.467,2162
20/05/2016 09:48:19.471,2166
20/05/2016 09:48:19.475,2166
20/05/2016 09:48:19.479,2166
20/05/2016 09:48:19.483,2166
20/05/2016 09:48:19.487,2166
20/05/2016 09:48:19.491,2168
20/05/2016 09:48:19.495,2170
20/05/2016 09:48:19.499,2173
20/05/2016 09:48:19.503,2175
20/05/2016 09:48:19.507,2176
20/05/2016 09:48:19.511,2176
20/05/2016 09:48:19.515,2176
20/05/2016 09:48:19.519,2175
20/05/2016 09:48:19.523,2175
20/05/2016 09:48:19.527,2176
20/05/2016 09:48:19.531,2176
20/05/2016 09:48:19.535,2176
20/05/2016 09:48:19.539,2176
20/05/2016 09:48:19.543,2177
20/05/2016 09:48:19.547,2179
20/05/2016 09:48:19.551,2183
20/05/2016 09:48:19.555,2186
20/05/2016 09:48:19.559,2190
20/05/2016 09:48:19.563,2193
20/05/2016 09:48:19.567,2195
20/05/2016 09:48:19.571,2196
20/05/2016 09:48:19.575,2197
20/05/2016 09:48:19.579,2198
20/05/2016 09:48:19.583,2199
20/05/2016 09:48:19.587,2200
20/05/2016 09:48:19.591,2201
20/05/2016 09:48:19.595,2202
20/05/2016 09:48:19.599,2204
20/05/2016 09:48:19.603,2206
20/05/2016 09:48:19.607,2208
20/05/2016 09:48:19.611,2210
20/05/2016 09:48:19.615,2213
20/05/2016 09:48:19.619,2215
20/05/2016 09:48:19.623,2218
20/05/2016 09:48:19.627,2220
20/05/2016 09:48:19.631,2222
20/05/2016 09:48:19.635,2222
20/05/2016 09:48:19.639,2221
20/05/2016 09:48:19.643,2220
20/05/2016 09:48:19.647,2220
20/05/2016 09:48:19.651,2220
20/05/2016 09:48:19.655,2220
20/05/2016 09:48:19.659,2220
20/05/2016 09:48:19.663,2218
20/05/2016 09:48:19.667,2215
20/05/2016 09:48:19.671,2211
20/05/2016 09:48:19.675,2206
20/05/2016 09:48:19.679,2202
20/05/2016 09:48:19.683,2197
20/05/2016 09:48:19.687,2192
20/05/2016 09:48:19.691,2186
20/05/2016 09:48:19.695,2181
20/05/2016 09:48:19.699,2176
20/05/2016 09:48:19.703,2172
20/05/2016 09:48:19.707,2170
20/05/2016 09:48:19.711,2169
20/05/2016 09:48:19.715,2169
20/05/2016 09:48:19.719,2169
20/05/2016 09:48:19.723,2169
20/05/2016 09:48:19.727,2170
20/05/2016 09:48:19.731,2170
20/05/2016 09:48:19.735,2169
20/05/2016 09:48:19.739,2168
20/05/2016 09:48:19.743,2166
20/05/2016 09:48:19.747,2164
20/05/2016 09:48:19.751,2162
20/05/2016 09:48:19.755,2161
20/05/2016 09:48:19.759,2159
20/05/2016 09:48:19.763,2158
20/05/2016 09:48:19.767,2158
20/05/2016 09:48:19.771,2158
20/05/2016 09:48:19.775,2156
20/05/2016 09:48:19.779,2153
20/05/2016 09:48:19.783,2148
20/05/2016 09:48:19.787,2143
20/05/2016 09:48:19.791,2137
20/05/2016 09:48:19.795,2133
20/05/2016 09:48:19.799,2129
20/05/2016 09:48:19.803,2127
20/05/2016 09:48:19.807,2125
20/05/2016 09:48:19.811,2123
20/05/2016 09:48:19.815,2121
20/05/2016 09:48:19.819,2118
20/05/2016 09:48:19.823,2116
20/05/2016 09:48:19.827,2114
20/05/2016 09:48:19.831,2114
20/05/2016 09:48:19.835,2115
20/05/2016 09:48:19.839,2115
20/05/2016 09:48:19.843,2115
20/05/2016 09:48:19.847,2114
20/05/2016 09:48:19.851,2113
20/05/2016 09:48:19.855,2111
20/05/2016 09:48:19.859,2110
20/05/2016 09:48:19.863,2109
20/05/2016 09:48:19.867,2108
20/05/2016 09:48:19.871,2108
20/05/2016 09:48:19.875,2108
20/05/2016 09:48:19.879,2107
20/05/2016 09:48:19.883,2107
20/05/2016 09:48:19.887,2106
20/05/2016 09:48:19.891,2106
20/05/2016 09:48:19.895,2106
20/05/2016 09:48:19.899,2105
20/05/2016 09:48:19.903,2103
20/05/2016 09:48:19.907,2100
20/05/2016 09:48:19.911,2096
20/05/2016 09:48:19.915,2094
20/05/2016 09:48:19.919,2094
20/05/2016 09:48:19.923,2094
20/05/2016 09:48:19.927,2094
20/05/2016 09:48:19.931,2092
20/05/2016 09:48:19.935,2089
20/05/2016 09:48:19.939,2088
20/05/2016 09:48:19.943,2090
20/05/2016 09:48:19.947,2095
20/05/2016 09:48:19.951,2101
20/05/2016 09:48:19.955,2107
20/05/2016 09:48:19.959,2112
20/05/2016 09:48:19.963,2117
20/05/2016 09:48:19.967,2119
20/05/2016 09:48:19.971,2119
20/05/2016 09:48:19.975,2115
20/05/2016 09:48:19.979,2110
20/05/2016 09:48:19.983,2104
20/05/2016 09:48:19.987,2100
20/05/2016 09:48:19.991,2100
20/05/2016 09:48:19.995,2102
20/05/2016 09:48:19.999,2104
20/05/2016 09:48:20.003,2104
20/05/2016 09:48:20.007,2103
20/05/2016 09:48:20.011,2099
20/05/2016 09:48:20.015,2097
20/05/2016 09:48:20.019,2096
20/05/2016 09:48:20.023,2097
20/05/2016 09:48:20.027,2098
20/05/2016 09:48:20.031,2100
20/05/2016 09:48:20.035,2100
20/05/2016 09:48:20.039,2101
20/05/2016 09:48:20.043,2102
20/05/2016 09:48:20.047,2102
20/05/2016 09:48:20.051,2102
20/05/2016 09:48:20.055,2100
20/05/2016 09:48:20.059,2096
20/05/2016 09:48:20.063,2090
20/05/2016 09:48:20.067,2084
20/05/2016 09:48:20.071,2082
20/05/2016 09:48:20.075,2091
20/05/2016 09:48:20.079,2119
20/05/2016 09:48:20.083,2172
20/05/2016 09:48:20.087,2244
20/05/2016 09:48:20.091,2314
20/05/2016 09:48:20.095,2358
20/05/2016 09:48:20.099,2355
20/05/2016 09:48:20.103,2307
20/05/2016 09:48:20.107,2232
20/05/2016 09:48:20.111,2158
20/05/2016 09:48:20.115,2109
20/05/2016 09:48:20.119,2090
20/05/2016 09:48:20.123,2094
20/05/2016 09:48:20.127,2108
20/05/2016 09:48:20.131,2121
20/05/2016 09:48:20.135,2129
20/05/2016 09:48:20.139,2134
20/05/2016 09:48:20.143,2136
20/05/2016 09:48:20.147,2136
20/05/2016 09:48:20.151,2134
20/05/2016 09:48:20.155,2132
20/05/2016 09:48:20.159,2129
20/05/2016 09:48:20.163,2128
20/05/2016 09:48:20.167,2128
20/05/2016 09:48:20.171,2129
20/05/2016 09:48:20.175,2132
20/05/2016 09:48:20.179,2134
20/05/2016 09:48:20.183,2135
20/05/2016 09:48:20.187,2135
20/05/2016 09:48:20.191,2134
20/05/2016 09:48:20.195,2133
20/05/2016 09:48:20.199,2133
20/05/2016 09:48:20.203,2134
20/05/2016 09:48:20.207,2135
20/05/2016 09:48:20.211,2137
20/05/2016 09:48:20.215,2139
20/05/2016 09:48:20.219,2142
20/05/2016 09:48:20.223,2144
20/05/2016 09:48:20.227,2147
20/05/2016 09:48:20.231,2150
20/05/2016 09:48:20.235,2152
20/05/2016 09:48:20.239,2154
20/05/2016 09:48:20.243,2157
20/05/2016 09:48:20.247,2161
20/05/2016 09:48:20.251,2165
20/05/2016 09:48:20.255,2169
20/05/2016 09:48:20.259,2173
20/05/2016 09:48:20.263,2176
20/05/2016 09:48:20.267,2181
20/05/2016 09:48:20.271,2185
20/05/2016 09:48:20.275,2189
20/05/2016 09:48:20.279,2193
20/05/2016 09:48:20.283,2197
20/05/2016 09:48:20.287,2200
20/05/2016 09:48:20.291,2203
20/05/2016 09:48:20.295,2205
20/05/2016 09:48:20.299,2207
20/05/2016 09:48:20.303,2210
20/05/2016 09:48:20.307,2213
20/05/2016 09:48:20.311,2215
20/05/2016 09:48:20.315,2216
20/05/2016 09:48:20.319,2215
20/05/2016 09:48:20.323,2212
20/05/2016 09:48:20.327,2207
20/05/2016 09:48:20.331,2201
20/05/2016 09:48:20.335,2195
20/05/2016 09:48:20.339,2188
20/05/2016 09:48:20.343,2180
20/05/2016 09:48:20.347,2171
20/05/2016 09:48:20.351,2162
20/05/2016 09:48:20.355,2154
20/05/2016 09:48:20.359,2148
20/05/2016 09:48:20.363,2144
20/05/2016 09:48:20.367,2141
20/05/2016 09:48:20.371,2140
20/05/2016 09:48:20.375,2138
20/05/2016 09:48:20.379,2136
20/05/2016 09:48:20.383,2134
20/05/2016 09:48:20.387,2132
20/05/2016 09:48:20.391,2131
20/05/2016 09:48:20.395,2132
20/05/2016 09:48:20.399,2134
20/05/2016 09:48:20.403,2137
20/05/2016 09:48:20.407,2139
20/05/2016 09:48:20.411,2139
20/05/2016 09:48:20.415,2138
20/05/2016 09:48:20.419,2136
20/05/2016 09:48:20.423,2133
20/05/2016 09:48:20.427,2130
20/05/2016 09:48:20.431,2128
20/05/2016 09:48:20.435,2127
20/05/2016 09:48:20.439,2126
20/05/2016 09:48:20.443,2125
20/05/2016 09:48:20.447,2124
20/05/2016 09:48:20.451,2123
20/05/2016 09:48:20.455,2123
20/05/2016 09:48:20.459,2124
20/05/2016 09:48:20.463,2127
20/05/2016 09:48:20.467,2130
20/05/2016 09:48:20.471,2132
20/05/2016 09:48:20.475,2132
20/05/2016 09:48:20.479,2131
20/05/2016 09:48:20.483,2128
20/05/2016 09:48:20.487,2125
20/05/2016 09:48:20.491,2124
20/05/2016 09:48:20.495,2125
20/05/2016 09:48:20.499,2125
20/05/2016 09:48:20.503,2125
20/05/2016 09:48:20.507,2125
20/05/2016 09:48:20.511,2126
20/05/2016 09:48:20.515,2129
20/05/2016 09:48:20.519,2134
20/05/2016 09:48:20.523,2139
20/05/2016 09:48:20.527,2143
20/05/2016 09:48:20.531,2145
20/05/2016 09:48:20.535,2146
20/05/2016 09:48:20.539,2145
20/05/2016 09:48:20.543,2145
20/05/2016 09:48:20.547,2143
20/05/2016 09:48:20.551,2142
20/05/2016 09:48:20.555,2141
20/05/2016 09:48:20.559,2140
20/05/2016 09:48:20.563,2139
20/05/2016 09:48:20.567,2137
20/05/2016 09:48:20.571,2134
20/05/2016 09:48:20.575,2131
20/05/2016 09:48:20.579,2129
20/05/2016 09:48:20.583,2127
20/05/2016 09:48:20.587,2127
20/05/2016 09:48:20.591,2128
20/05/2016 09:48:20.595,2129
20/05/2016 09:48:20.599,2132
20/05/2016 09:48:20.603,2134
20/05/2016 09:48:20.607,2136
20/05/2016 09:48:20.611,2138
20/05/2016 09:48:20.615,2139
20/05/2016 09:48:20.619,2139
20/05/2016 09:48:20.623,2140
20/05/2016 09:48:20.627,2142
20/05/2016 09:48:20.631,2146
20/05/2016 09:48:20.635,2148
20/05/2016 09:48:20.639,2150
20/05/2016 09:48:20.643,2149
20/05/2016 09:48:20.647,2148
20/05/2016 09:48:20.651,2147
20/05/2016 09:48:20.655,2146
20/05/2016 09:48:20.659,2146
20/05/2016 09:48:20.663,2146
20/05/2016 09:48:20.667,2147
20/05/2016 09:48:20.671,2148
20/05/2016 09:48:20.675,2150
20/05/2016 09:48:20.679,2151
20/05/2016 09:48:20.683,2152
20/05/2016 09:48:20.687,2152
20/05/2016 09:48:20.691,2149
20/05/2016 09:48:20.695,2145
20/05/2016 09:48:20.699,2141
20/05/2016 09:48:20.703,2139
20/05/2016 09:48:20.707,2140
20/05/2016 09:48:20.711,2143
20/05/2016 09:48:20.715,2147
20/05/2016 09:48:20.719,2150
20/05/2016 09:48:20.723,2152
20/05/2016 09:48:20.727,2153
20/05/2016 09:48:20.731,2152
20/05/2016 09:48:20.735,2150
20/05/2016 09:48:20.739,2149
20/05/2016 09:48:20.743,2156
20/05/2016 09:48:20.747,2181
20/05/2016 09:48:20.751,2231
20/05/2016 09:48:20.755,2300
20/05/2016 09:48:20.759,2372
20/05/2016 09:48:20.763,2420
20/05/2016 09:48:20.767,2425
20/05/2016 09:48:20.771,2384
20/05/2016 09:48:20.775,2312
20/05/2016 09:48:20.779,2239
20/05/2016 09:48:20.783,2186
20/05/2016 09:48:20.787,2163
20/05/2016 09:48:20.791,2164
20/05/2016 09:48:20.795,2175
20/05/2016 09:48:20.799,2187
20/05/2016 09:48:20.803,2194
20/05/2016 09:48:20.807,2199
20/05/2016 09:48:20.811,2202
20/05/2016 09:48:20.815,2201
20/05/2016 09:48:20.819,2198
20/05/2016 09:48:20.823,2194
20/05/2016 09:48:20.827,2191
20/05/2016 09:48:20.831,2191
20/05/2016 09:48:20.835,2194
20/05/2016 09:48:20.839,2198
20/05/2016 09:48:20.843,2201
20/05/2016 09:48:20.847,2203
20/05/2016 09:48:20.851,2204
20/05/2016 09:48:20.855,2205
20/05/2016 09:48:20.859,2206
20/05/2016 09:48:20.863,2206
20/05/2016 09:48:20.867,2204
20/05/2016 09:48:20.871,2202
20/05/2016 09:48:20.875,2202
20/05/2016 09:48:20.879,2204
20/05/2016 09:48:20.883,2208
20/05/2016 09:48:20.887,2213
20/05/2016 09:48:20.891,2217
20/05/2016 09:48:20.895,2218
20/05/2016 09:48:20.899,2218
20/05/2016 09:48:20.903,2217
20/05/2016 09:48:20.907,2217
20/05/2016 09:48:20.911,2216
20/05/2016 09:48:20.915,2216
20/05/2016 09:48:20.919,2216
20/05/2016 09:48:20.923,2217
20/05/2016 09:48:20.927,2219
20/05/2016 09:48:20.931,2222
20/05/2016 09:48:20.935,2225
20/05/2016 09:48:20.939,2227
20/05/2016 09:48:20.943,2229
20/05/2016 09:48:20.947,2231
20/05/2016 09:48:20.951,2234
20/05/2016 09:48:20.955,2237
20/05/2016 09:48:20.959,2239
20/05/2016 09:48:20.963,2240
20/05/2016 09:48:20.967,2238
20/05/2016 09:48:20.971,2236
20/05/2016 09:48:20.975,2235
20/05/2016 09:48:20.979,2237
20/05/2016 09:48:20.983,2240
20/05/2016 09:48:20.987,2242
20/05/2016 09:48:20.991,2241
20/05/2016 09:48:20.995,2238
20/05/2016 09:48:20.999,2234
20/05/2016 09:48:21.003,2231
20/05/2016 09:48:21.007,2230
20/05/2016 09:48:21.011,2230
20/05/2016 09:48:21.015,2229
20/05/2016 09:48:21.019,2224
20/05/2016 09:48:21.023,2216
20/05/2016 09:48:21.027,2208
20/05/2016 09:48:21.031,2201
20/05/2016 09:48:21.035,2195
20/05/2016 09:48:21.039,2190
20/05/2016 09:48:21.043,2181
20/05/2016 09:48:21.047,2167
20/05/2016 09:48:21.051,2149
20/05/2016 09:48:21.055,2127
20/05/2016 09:48:21.059,2106
20/05/2016 09:48:21.063,2087
20/05/2016 09:48:21.067,2071
20/05/2016 09:48:21.071,2056
20/05/2016 09:48:21.075,2041
20/05/2016 09:48:21.079,2022
20/05/2016 09:48:21.083,2003
20/05/2016 09:48:21.087,1984
20/05/2016 09:48:21.091,1969
20/05/2016 09:48:21.095,1959
20/05/2016 09:48:21.099,1953
20/05/2016 09:48:21.103,1951
20/05/2016 09:48:21.107,1949
20/05/2016 09:48:21.111,1946
20/05/2016 09:48:21.115,1938
20/05/2016 09:48:21.119,1925
20/05/2016 09:48:21.123,1908
20/05/2016 09:48:21.127,1888
20/05/2016 09:48:21.131,1869
20/05/2016 09:48:21.135,1854
20/05/2016 09:48:21.139,1846
20/05/2016 09:48:21.143,1842
20/05/2016 09:48:21.147,1842
20/05/2016 09:48:21.151,1842
20/05/2016 09:48:21.155,1841
20/05/2016 09:48:21.159,1839
20/05/2016 09:48:21.163,1838
20/05/2016 09:48:21.167,1839
20/05/2016 09:48:21.171,1842
20/05/2016 09:48:21.175,1847
20/05/2016 09:48:21.179,1853
20/05/2016 09:48:21.183,1859
20/05/2016 09:48:21.187,1864
20/05/2016 09:48:21.191,1868
20/05/2016 09:48:21.195,1871
20/05/2016 09:48:21.199,1873
20/05/2016 09:48:21.203,1872
20/05/2016 09:48:21.207,1871
20/05/2016 09:48:21.211,1869
20/05/2016 09:48:21.215,1867
20/05/2016 09:48:21.219,1866
20/05/2016 09:48:21.223,1864
20/05/2016 09:48:21.227,1862
20/05/2016 09:48:21.231,1861
20/05/2016 09:48:21.235,1862
20/05/2016 09:48:21.239,1865
20/05/2016 09:48:21.243,1869
20/05/2016 09:48:21.247,1872
20/05/2016 09:48:21.251,1876
20/05/2016 09:48:21.255,1878
20/05/2016 09:48:21.259,1879
20/05/2016 09:48:21.263,1881
20/05/2016 09:48:21.267,1884
20/05/2016 09:48:21.271,1887
20/05/2016 09:48:21.275,1890
20/05/2016 09:48:21.279,1892
20/05/2016 09:48:21.283,1893
20/05/2016 09:48:21.287,1893
20/05/2016 09:48:21.291,1893
20/05/2016 09:48:21.295,1893
20/05/2016 09:48:21.299,1895
20/05/2016 09:48:21.303,1900
20/05/2016 09:48:21.307,1907
20/05/2016 09:48:21.311,1914
20/05/2016 09:48:21.315,1919
20/05/2016 09:48:21.319,1922
20/05/2016 09:48:21.323,1921
20/05/2016 09:48:21.327,1920
20/05/2016 09:48:21.331,1918
20/05/2016 09:48:21.335,1918
20/05/2016 09:48:21.339,1919
20/05/2016 09:48:21.343,1920
20/05/2016 09:48:21.347,1921
20/05/2016 09:48:21.351,1921
20/05/2016 09:48:21.355,1921
20/05/2016 09:48:21.359,1921
20/05/2016 09:48:21.363,1922
20/05/2016 09:48:21.367,1924
20/05/2016 09:48:21.371,1927
20/05/2016 09:48:21.375,1929
20/05/2016 09:48:21.379,1930
20/05/2016 09:48:21.383,1928
20/05/2016 09:48:21.387,1926
20/05/2016 09:48:21.391,1925
20/05/2016 09:48:21.395,1926
20/05/2016 09:48:21.399,1929
20/05/2016 09:48:21.403,1934
20/05/2016 09:48:21.407,1936
20/05/2016 09:48:21.411,1935
20/05/2016 09:48:21.415,1930
20/05/2016 09:48:21.419,1924
20/05/2016 09:48:21.423,1924
20/05/2016 09:48:21.427,1936
20/05/2016 09:48:21.431,1968
20/05/2016 09:48:21.435,2021
20/05/2016 09:48:21.439,2087
20/05/2016 09:48:21.443,2148
20/05/2016 09:48:21.447,2182
20/05/2016 09:48:21.451,2174
20/05/2016 09:48:21.455,2126
20/05/2016 09:48:21.459,2057
20/05/2016 09:48:21.463,1993
20/05/2016 09:48:21.467,1949
20/05/2016 09:48:21.471,1933
20/05/2016 09:48:21.475,1938
20/05/2016 09:48:21.479,1951
20/05/2016 09:48:21.483,1962
20/05/2016 09:48:21.487,1970
20/05/2016 09:48:21.491,1973
20/05/2016 09:48:21.495,1972
20/05/2016 09:48:21.499,1970
20/05/2016 09:48:21.503,1968
20/05/2016 09:48:21.507,1966
20/05/2016 09:48:21.511,1967
20/05/2016 09:48:21.515,1968
20/05/2016 09:48:21.519,1969
20/05/2016 09:48:21.523,1970
20/05/2016 09:48:21.527,1972
20/05/2016 09:48:21.531,1974
20/05/2016 09:48:21.535,1978
20/05/2016 09:48:21.539,1982
20/05/2016 09:48:21.543,1984
20/05/2016 09:48:21.547,1986
20/05/2016 09:48:21.551,1987
20/05/2016 09:48:21.555,1988
20/05/2016 09:48:21.559,1990
20/05/2016 09:48:21.563,1992
20/05/2016 09:48:21.567,1994
20/05/2016 09:48:21.571,1996
20/05/2016 09:48:21.575,1997
20/05/2016 09:48:21.579,1997
20/05/2016 09:48:21.583,1997
20/05/2016 09:48:21.587,1998
20/05/2016 09:48:21.591,1999
20/05/2016 09:48:21.595,2001
20/05/2016 09:48:21.599,2003
20/05/2016 09:48:21.603,2006
20/05/2016 09:48:21.607,2009
20/05/2016 09:48:21.611,2011
20/05/2016 09:48:21.615,2014
20/05/2016 09:48:21.619,2017
20/05/2016 09:48:21.623,2020
20/05/2016 09:48:21.627,2023
20/05/2016 09:48:21.631,2026
20/05/2016 09:48:21.635,2028
20/05/2016 09:48:21.639,2031
20/05/2016 09:48:21.643,2034
20/05/2016 09:48:21.647,2038
20/05/2016 09:48:21.651,2042
20/05/2016 09:48:21.655,2046
20/05/2016 09:48:21.659,2049
20/05/2016 09:48:21.663,2052
20/05/2016 09:48:21.667,2056
20/05/2016 09:48:21.671,2058
20/05/2016 09:48:21.675,2059
20/05/2016 09:48:21.679,2058
20/05/2016 09:48:21.683,2055
20/05/2016 09:48:21.687,2050
20/05/2016 09:48:21.691,2045
20/05/2016 09:48:21.695,2039
20/05/2016 09:48:21.699,2033
20/05/2016 09:48:21.703,2027
20/05/2016 09:48:21.707,2021
20/05/2016 09:48:21.711,2016
20/05/2016 09:48:21.715,2012
20/05/2016 09:48:21.719,2009
20/05/2016 09:48:21.723,2007
20/05/2016 09:48:21.727,2005
20/05/2016 09:48:21.731,2004
20/05/2016 09:48:21.735,2003
20/05/2016 09:48:21.739,2003
20/05/2016 09:48:21.743,2003
20/05/2016 09:48:21.747,2004
20/05/2016 09:48:21.751,2004
20/05/2016 09:48:21.755,2005
20/05/2016 09:48:21.759,2004
20/05/2016 09:48:21.763,2004
20/05/2016 09:48:21.767,2005
20/05/2016 09:48:21.771,2006
20/05/2016 09:48:21.775,2008
20/05/2016 09:48:21.779,2009
20/05/2016 09:48:21.783,2010
20/05/2016 09:48:21.787,2011
20/05/2016 09:48:21.791,2013
20/05/2016 09:48:21.795,2015
20/05/2016 09:48:21.799,2017
20/05/2016 09:48:21.803,2019
20/05/2016 09:48:21.807,2021
20/05/2016 09:48:21.811,2023
20/05/2016 09:48:21.815,2024
20/05/2016 09:48:21.819,2026
20/05/2016 09:48:21.823,2027
20/05/2016 09:48:21.827,2028
20/05/2016 09:48:21.831,2029
20/05/2016 09:48:21.835,2030
20/05/2016 09:48:21.839,2032
20/05/2016 09:48:21.843,2035
20/05/2016 09:48:21.847,2037
20/05/2016 09:48:21.851,2040
20/05/2016 09:48:21.855,2042
20/05/2016 09:48:21.859,2044
20/05/2016 09:48:21.863,2045
20/05/2016 09:48:21.867,2047
20/05/2016 09:48:21.871,2048
20/05/2016 09:48:21.875,2048
20/05/2016 09:48:21.879,2048
20/05/2016 09:48:21.883,2048
20/05/2016 09:48:21.887,2049
20/05/2016 09:48:21.891,2049
20/05/2016 09:48:21.895,2050
20/05/2016 09:48:21.899,2051
20/05/2016 09:48:21.903,2053
20/05/2016 09:48:21.907,2055
20/05/2016 09:48:21.911,2056
20/05/2016 09:48:21.915,2057
20/05/2016 09:48:21.919,2057
20/05/2016 09:48:21.923,2057
20/05/2016 09:48:21.927,2056
20/05/2016 09:48:21.931,2056
20/05/2016 09:48:21.935,2056
20/05/2016 09:48:21.939,2055
20/05/2016 09:48:21.943,2055
20/05/2016 09:48:21.947,2055
20/05/2016 09:48:21.951,2055
20/05/2016 09:48:21.955,2056
20/05/2016 09:48:21.959,2057
20/05/2016 09:48:21.963,2059
20/05/2016 09:48:21.967,2060
20/05/2016 09:48:21.971,2061
20/05/2016 09:48:21.975,2062
20/05/2016 09:48:21.979,2063
20/05/2016 09:48:21.983,2064
20/05/2016 09:48:21.987,2065
20/05/2016 09:48:21.991,2068
20/05/2016 09:48:21.995,2070
20/05/2016 09:48:21.999,2071
20/05/2016 09:48:22.003,2070
20/05/2016 09:48:22.007,2068
20/05/2016 09:48:22.011,2066
20/05/2016 09:48:22.015,2065
20/05/2016 09:48:22.019,2065
20/05/2016 09:48:22.023,2065
20/05/2016 09:48:22.027,2066
20/05/2016 09:48:22.031,2067
20/05/2016 09:48:22.035,2068
20/05/2016 09:48:22.039,2069
20/05/2016 09:48:22.043,2072
20/05/2016 09:48:22.047,2075
20/05/2016 09:48:22.051,2079
20/05/2016 09:48:22.055,2082
20/05/2016 09:48:22.059,2085
20/05/2016 09:48:22.063,2088
20/05/2016 09:48:22.067,2091
20/05/2016 09:48:22.071,2093
20/05/2016 09:48:22.075,2096
20/05/2016 09:48:22.079,2097
20/05/2016 09:48:22.083,2099
20/05/2016 09:48:22.087,2102
20/05/2016 09:48:22.091,2105
20/05/2016 09:48:22.095,2106
20/05/2016 09:48:22.099,2103
20/05/2016 09:48:22.103,2099
20/05/2016 09:48:22.107,2101
20/05/2016 09:48:22.111,2121
20/05/2016 09:48:22.115,2164
20/05/2016 09:48:22.119,2228
20/05/2016 09:48:22.123,2296
20/05/2016 09:48:22.127,2343
20/05/2016 09:48:22.131,2349
20/05/2016 09:48:22.135,2311
20/05/2016 09:48:22.139,2246
20/05/2016 09:48:22.143,2178
20/05/2016 09:48:22.147,2128
20/05/2016 09:48:22.151,2105
20/05/2016 09:48:22.155,2102
20/05/2016 09:48:22.159,2109
20/05/2016 09:48:22.163,2115
20/05/2016 09:48:22.167,2117
20/05/2016 09:48:22.171,2116
20/05/2016 09:48:22.175,2111
20/05/2016 09:48:22.179,2103
20/05/2016 09:48:22.183,2094
20/05/2016 09:48:22.187,2087
20/05/2016 09:48:22.191,2084
20/05/2016 09:48:22.195,2084
20/05/2016 09:48:22.199,2079
20/05/2016 09:48:22.203,2062
20/05/2016 09:48:22.207,2028
20/05/2016 09:48:22.211,1977
20/05/2016 09:48:22.215,1921
20/05/2016 09:48:22.219,1869
20/05/2016 09:48:22.223,1830
20/05/2016 09:48:22.227,1807
20/05/2016 09:48:22.231,1797
20/05/2016 09:48:22.235,1795
20/05/2016 09:48:22.239,1799
20/05/2016 09:48:22.243,1806
20/05/2016 09:48:22.247,1818
20/05/2016 09:48:22.251,1834
20/05/2016 09:48:22.255,1852
20/05/2016 09:48:22.259,1870
20/05/2016 09:48:22.263,1886
20/05/2016 09:48:22.267,1898
20/05/2016 09:48:22.271,1906
20/05/2016 09:48:22.275,1914
20/05/2016 09:48:22.279,1923
20/05/2016 09:48:22.283,1933
20/05/2016 09:48:22.287,1942
20/05/2016 09:48:22.291,1949
20/05/2016 09:48:22.295,1954
20/05/2016 09:48:22.299,1957
20/05/2016 09:48:22.303,1961
20/05/2016 09:48:22.307,1967
20/05/2016 09:48:22.311,1973
20/05/2016 09:48:22.315,1980
20/05/2016 09:48:22.319,1989
20/05/2016 09:48:22.323,1999
20/05/2016 09:48:22.327,2008
20/05/2016 09:48:22.331,2016
20/05/2016 09:48:22.335,2021
20/05/2016 09:48:22.339,2026
20/05/2016 09:48:22.343,2031
20/05/2016 09:48:22.347,2038
20/05/2016 09:48:22.351,2047
20/05/2016 09:48:22.355,2054
20/05/2016 09:48:22.359,2059
20/05/2016 09:48:22.363,2060
20/05/2016 09:48:22.367,2058
20/05/2016 09:48:22.371,2053
20/05/2016 09:48:22.375,2048
20/05/2016 09:48:22.379,2043
20/05/2016 09:48:22.383,2037
20/05/2016 09:48:22.387,2032
20/05/2016 09:48:22.391,2027
20/05/2016 09:48:22.395,2022
20/05/2016 09:48:22.399,2019
20/05/2016 09:48:22.403,2016
20/05/2016 09:48:22.407,2015
20/05/2016 09:48:22.411,2015
20/05/2016 09:48:22.415,2016
20/05/2016 09:48:22.419,2017
20/05/2016 09:48:22.423,2018
20/05/2016 09:48:22.427,2020
20/05/2016 09:48:22.431,2022
20/05/2016 09:48:22.435,2024
20/05/2016 09:48:22.439,2027
20/05/2016 09:48:22.443,2030
20/05/2016 09:48:22.447,2034
20/05/2016 09:48:22.451,2038
20/05/2016 09:48:22.455,2042
20/05/2016 09:48:22.459,2046
20/05/2016 09:48:22.463,2049
20/05/2016 09:48:22.467,2051
20/05/2016 09:48:22.471,2053
20/05/2016 09:48:22.475,2054
20/05/2016 09:48:22.479,2055
20/05/2016 09:48:22.483,2058
20/05/2016 09:48:22.487,2062
20/05/2016 09:48:22.491,2066
20/05/2016 09:48:22.495,2068
20/05/2016 09:48:22.499,2069
20/05/2016 09:48:22.503,2070
20/05/2016 09:48:22.507,2070
20/05/2016 09:48:22.511,2071
20/05/2016 09:48:22.515,2074
20/05/2016 09:48:22.519,2078
20/05/2016 09:48:22.523,2083
20/05/2016 09:48:22.527,2086
20/05/2016 09:48:22.531,2089
20/05/2016 09:48:22.535,2091
20/05/2016 09:48:22.539,2092
20/05/2016 09:48:22.543,2095
20/05/2016 09:48:22.547,2097
20/05/2016 09:48:22.551,2099
20/05/2016 09:48:22.555,2101
20/05/2016 09:48:22.559,2101
20/05/2016 09:48:22.563,2102
20/05/2016 09:48:22.567,2105
20/05/2016 09:48:22.571,2109
20/05/2016 09:48:22.575,2114
20/05/2016 09:48:22.579,2119
20/05/2016 09:48:22.583,2122
20/05/2016 09:48:22.587,2124
20/05/2016 09:48:22.591,2125
20/05/2016 09:48:22.595,2125
20/05/2016 09:48:22.599,2126
20/05/2016 09:48:22.603,2127
20/05/2016 09:48:22.607,2129
20/05/2016 09:48:22.611,2131
20/05/2016 09:48:22.615,2133
20/05/2016 09:48:22.619,2134
20/05/2016 09:48:22.623,2134
20/05/2016 09:48:22.627,2135
20/05/2016 09:48:22.631,2135
20/05/2016 09:48:22.635,2135
20/05/2016 09:48:22.639,2137
20/05/2016 09:48:22.643,2140
20/05/2016 09:48:22.647,2145
20/05/2016 09:48:22.651,2149
20/05/2016 09:48:22.655,2153
20/05/2016 09:48:22.659,2155
20/05/2016 09:48:22.663,2155
20/05/2016 09:48:22.667,2152
20/05/2016 09:48:22.671,2148
20/05/2016 09:48:22.675,2143
20/05/2016 09:48:22.679,2140
20/05/2016 09:48:22.683,2138
20/05/2016 09:48:22.687,2139
20/05/2016 09:48:22.691,2141
20/05/2016 09:48:22.695,2144
20/05/2016 09:48:22.699,2146
20/05/2016 09:48:22.703,2147
20/05/2016 09:48:22.707,2147
20/05/2016 09:48:22.711,2147
20/05/2016 09:48:22.715,2147
20/05/2016 09:48:22.719,2146
20/05/2016 09:48:22.723,2145
20/05/2016 09:48:22.727,2144
20/05/2016 09:48:22.731,2143
20/05/2016 09:48:22.735,2143
20/05/2016 09:48:22.739,2143
20/05/2016 09:48:22.743,2145
20/05/2016 09:48:22.747,2145
20/05/2016 09:48:22.751,2143
20/05/2016 09:48:22.755,2137
20/05/2016 09:48:22.759,2132
20/05/2016 09:48:22.763,2135
20/05/2016 09:48:22.767,2159
20/05/2016 09:48:22.771,2209
20/05/2016 09:48:22.775,2282
20/05/2016 09:48:22.779,2360
20/05/2016 09:48:22.783,2415
20/05/2016 09:48:22.787,2424
20/05/2016 09:48:22.791,2379
20/05/2016 09:48:22.795,2297
20/05/2016 09:48:22.799,2208
20/05/2016 09:48:22.803,2142
20/05/2016 09:48:22.807,2111
20/05/2016 09:48:22.811,2110
20/05/2016 09:48:22.815,2124
20/05/2016 09:48:22.819,2137
20/05/2016 09:48:22.823,2144
20/05/2016 09:48:22.827,2147
20/05/2016 09:48:22.831,2147
20/05/2016 09:48:22.835,2148
20/05/2016 09:48:22.839,2148
20/05/2016 09:48:22.843,2147
20/05/2016 09:48:22.847,2145
20/05/2016 09:48:22.851,2144
20/05/2016 09:48:22.855,2144
20/05/2016 09:48:22.859,2144
20/05/2016 09:48:22.863,2145
20/05/2016 09:48:22.867,2145
20/05/2016 09:48:22.871,2145
20/05/2016 09:48:22.875,2144
20/05/2016 09:48:22.879,2144
20/05/2016 09:48:22.883,2143
20/05/2016 09:48:22.887,2142
20/05/2016 09:48:22.891,2141
20/05/2016 09:48:22.895,2142
20/05/2016 09:48:22.899,2145
20/05/2016 09:48:22.903,2147
20/05/2016 09:48:22.907,2149
20/05/2016 09:48:22.911,2150
20/05/2016 09:48:22.915,2150
20/05/2016 09:48:22.919,2151
20/05/2016 09:48:22.923,2154
20/05/2016 09:48:22.927,2157
20/05/2016 09:48:22.931,2159
20/05/2016 09:48:22.935,2161
20/05/2016 09:48:22.939,2162
20/05/2016 09:48:22.943,2164
20/05/2016 09:48:22.947,2166
20/05/2016 09:48:22.951,2168
20/05/2016 09:48:22.955,2169
20/05/2016 09:48:22.959,2169
20/05/2016 09:48:22.963,2169
20/05/2016 09:48:22.967,2171
20/05/2016 09:48:22.971,2174
20/05/2016 09:48:22.975,2177
20/05/2016 09:48:22.979,2180
20/05/2016 09:48:22.983,2183
20/05/2016 09:48:22.987,2185
20/05/2016 09:48:22.991,2187
20/05/2016 09:48:22.995,2188
20/05/2016 09:48:22.999,2189
20/05/2016 09:48:23.003,2188
20/05/2016 09:48:23.007,2186
20/05/2016 09:48:23.011,2183
20/05/2016 09:48:23.015,2179
20/05/2016 09:48:23.019,2172
20/05/2016 09:48:23.023,2163
20/05/2016 09:48:23.027,2154
20/05/2016 09:48:23.031,2146
20/05/2016 09:48:23.035,2139
20/05/2016 09:48:23.039,2133
20/05/2016 09:48:23.043,2128
20/05/2016 09:48:23.047,2122
20/05/2016 09:48:23.051,2115
20/05/2016 09:48:23.055,2109
20/05/2016 09:48:23.059,2104
20/05/2016 09:48:23.063,2100
20/05/2016 09:48:23.067,2098
20/05/2016 09:48:23.071,2097
20/05/2016 09:48:23.075,2096
20/05/2016 09:48:23.079,2095
20/05/2016 09:48:23.083,2096
20/05/2016 09:48:23.087,2097
20/05/2016 09:48:23.091,2099
20/05/2016 09:48:23.095,2100
20/05/2016 09:48:23.099,2101
20/05/2016 09:48:23.103,2101
20/05/2016 09:48:23.107,2100
20/05/2016 09:48:23.111,2100
20/05/2016 09:48:23.115,2099
20/05/2016 09:48:23.119,2098
20/05/2016 09:48:23.123,2096
20/05/2016 09:48:23.127,2094
20/05/2016 09:48:23.131,2091
20/05/2016 09:48:23.135,2089
20/05/2016 09:48:23.139,2087
20/05/2016 09:48:23.143,2085
20/05/2016 09:48:23.147,2083
20/05/2016 09:48:23.151,2080
20/05/2016 09:48:23.155,2078
20/05/2016 09:48:23.159,2075
20/05/2016 09:48:23.163,2073
20/05/2016 09:48:23.167,2071
20/05/2016 09:48:23.171,2069
20/05/2016 09:48:23.175,2068
20/05/2016 09:48:23.179,2067
20/05/2016 09:48:23.183,2066
20/05/2016 09:48:23.187,2064
20/05/2016 09:48:23.191,2061
20/05/2016 09:48:23.195,2059
20/05/2016 09:48:23.199,2057
20/05/2016 09:48:23.203,2056
20/05/2016 09:48:23.207,2057
20/05/2016 09:48:23.211,2057
20/05/2016 09:48:23.215,2057
20/05/2016 09:48:23.219,2057
20/05/2016 09:48:23.223,2055
20/05/2016 09:48:23.227,2053
20/05/2016 09:48:23.231,2052
20/05/2016 09:48:23.235,2051
20/05/2016 09:48:23.239,2050
20/05/2016 09:48:23.243,2049
20/05/2016 09:48:23.247,2048
20/05/2016 09:48:23.251,2046
20/05/2016 09:48:23.255,2045
20/05/2016 09:48:23.259,2044
20/05/2016 09:48:23.263,2043
20/05/2016 09:48:23.267,2043
20/05/2016 09:48:23.271,2042
20/05/2016 09:48:23.275,2041
20/05/2016 09:48:23.279,2040
20/05/2016 09:48:23.283,2040
20/05/2016 09:48:23.287,2040
20/05/2016 09:48:23.291,2042
20/05/2016 09:48:23.295,2043
20/05/2016 09:48:23.299,2045
20/05/2016 09:48:23.303,2046
20/05/2016 09:48:23.307,2046
20/05/2016 09:48:23.311,2045
20/05/2016 09:48:23.315,2042
20/05/2016 09:48:23.319,2039
20/05/2016 09:48:23.323,2036
20/05/2016 09:48:23.327,2033
20/05/2016 09:48:23.331,2032
20/05/2016 09:48:23.335,2032
20/05/2016 09:48:23.339,2033
20/05/2016 09:48:23.343,2035
20/05/2016 09:48:23.347,2035
20/05/2016 09:48:23.351,2035
20/05/2016 09:48:23.355,2035
20/05/2016 09:48:23.359,2034
20/05/2016 09:48:23.363,2035
20/05/2016 09:48:23.367,2036
20/05/2016 09:48:23.371,2037
20/05/2016 09:48:23.375,2038
20/05/2016 09:48:23.379,2039
20/05/2016 09:48:23.383,2039
20/05/2016 09:48:23.387,2040
20/05/2016 09:48:23.391,2040
20/05/2016 09:48:23.395,2039
20/05/2016 09:48:23.399,2036
20/05/2016 09:48:23.403,2030
20/05/2016 09:48:23.407,2025
20/05/2016 09:48:23.411,2027
20/05/2016 09:48:23.415,2043
20/05/2016 09:48:23.419,2082
20/05/2016 09:48:23.423,2144
20/05/2016 09:48:23.427,2218
20/05/2016 09:48:23.431,2278
20/05/2016 09:48:23.435,2301
20/05/2016 09:48:23.439,2272
20/05/2016 09:48:23.443,2202
20/05/2016 09:48:23.447,2116
20/05/2016 09:48:23.451,2047
20/05/2016 09:48:23.455,2008
20/05/2016 09:48:23.459,2002
20/05/2016 09:48:23.463,2013
20/05/2016 09:48:23.467,2027
20/05/2016 09:48:23.471,2035
20/05/2016 09:48:23.475,2038
20/05/2016 09:48:23.479,2037
20/05/2016 09:48:23.483,2037
20/05/2016 09:48:23.487,2036
20/05/2016 09:48:23.491,2036
20/05/2016 09:48:23.495,2036
20/05/2016 09:48:23.499,2036
20/05/2016 09:48:23.503,2037
20/05/2016 09:48:23.507,2038
20/05/2016 09:48:23.511,2038
20/05/2016 09:48:23.515,2038
20/05/2016 09:48:23.519,2038
20/05/2016 09:48:23.523,2038
20/05/2016 09:48:23.527,2037
20/05/2016 09:48:23.531,2036
20/05/2016 09:48:23.535,2034
20/05/2016 09:48:23.539,2032
20/05/2016 09:48:23.543,2031
20/05/2016 09:48:23.547,2030
20/05/2016 09:48:23.551,2031
20/05/2016 09:48:23.555,2033
20/05/2016 09:48:23.559,2035
20/05/2016 09:48:23.563,2037
20/05/2016 09:48:23.567,2040
20/05/2016 09:48:23.571,2042
20/05/2016 09:48:23.575,2043
20/05/2016 09:48:23.579,2044
20/05/2016 09:48:23.583,2043
20/05/2016 09:48:23.587,2043
20/05/2016 09:48:23.591,2043
20/05/2016 09:48:23.595,2044
20/05/2016 09:48:23.599,2047
20/05/2016 09:48:23.603,2050
20/05/2016 09:48:23.607,2053
20/05/2016 09:48:23.611,2056
20/05/2016 09:48:23.615,2058
20/05/2016 09:48:23.619,2061
20/05/2016 09:48:23.623,2062
20/05/2016 09:48:23.627,2064
20/05/2016 09:48:23.631,2066
20/05/2016 09:48:23.635,2069
20/05/2016 09:48:23.639,2072
20/05/2016 09:48:23.643,2073
20/05/2016 09:48:23.647,2074
20/05/2016 09:48:23.651,2072
20/05/2016 09:48:23.655,2069
20/05/2016 09:48:23.659,2066
20/05/2016 09:48:23.663,2065
20/05/2016 09:48:23.667,2065
20/05/2016 09:48:23.671,2064
20/05/2016 09:48:23.675,2060
20/05/2016 09:48:23.679,2054
20/05/2016 09:48:23.683,2047
20/05/2016 09:48:23.687,2041
20/05/2016 09:48:23.691,2036
20/05/2016 09:48:23.695,2033
20/05/2016 09:48:23.699,2031
20/05/2016 09:48:23.703,2030
20/05/2016 09:48:23.707,2028
20/05/2016 09:48:23.711,2025
20/05/2016 09:48:23.715,2022
20/05/2016 09:48:23.719,2018
20/05/2016 09:48:23.723,2014
20/05/2016 09:48:23.727,2012
20/05/2016 09:48:23.731,2011
20/05/2016 09:48:23.735,2011
20/05/2016 09:48:23.739,2012
20/05/2016 09:48:23.743,2012
20/05/2016 09:48:23.747,2012
20/05/2016 09:48:23.751,2011
20/05/2016 09:48:23.755,2011
20/05/2016 09:48:23.759,2012
20/05/2016 09:48:23.763,2014
20/05/2016 09:48:23.767,2015
20/05/2016 09:48:23.771,2014
20/05/2016 09:48:23.775,2013
20/05/2016 09:48:23.779,2012
20/05/2016 09:48:23.783,2011
20/05/2016 09:48:23.787,2010
20/05/2016 09:48:23.791,2010
20/05/2016 09:48:23.795,2011
20/05/2016 09:48:23.799,2011
20/05/2016 09:48:23.803,2012
20/05/2016 09:48:23.807,2012
20/05/2016 09:48:23.811,2013
20/05/2016 09:48:23.815,2014
20/05/2016 09:48:23.819,2014
20/05/2016 09:48:23.823,2014
20/05/2016 09:48:23.827,2016
20/05/2016 09:48:23.831,2019
20/05/2016 09:48:23.835,2023
20/05/2016 09:48:23.839,2025
20/05/2016 09:48:23.843,2026
20/05/2016 09:48:23.847,2025
20/05/2016 09:48:23.851,2022
20/05/2016 09:48:23.855,2020
20/05/2016 09:48:23.859,2019
20/05/2016 09:48:23.863,2019
20/05/2016 09:48:23.867,2019
20/05/2016 09:48:23.871,2020
20/05/2016 09:48:23.875,2021
20/05/2016 09:48:23.879,2021
20/05/2016 09:48:23.883,2021
20/05/2016 09:48:23.887,2020
20/05/2016 09:48:23.891,2018
20/05/2016 09:48:23.895,2016
20/05/2016 09:48:23.899,2015
20/05/2016 09:48:23.903,2013
20/05/2016 09:48:23.907,2010
20/05/2016 09:48:23.911,2007
20/05/2016 09:48:23.915,2005
20/05/2016 09:48:23.919,2003
20/05/2016 09:48:23.923,2002
20/05/2016 09:48:23.927,2001
20/05/2016 09:48:23.931,1998
20/05/2016 09:48:23.935,1993
20/05/2016 09:48:23.939,1987
20/05/2016 09:48:23.943,1984
20/05/2016 09:48:23.947,1984
20/05/2016 09:48:23.951,1986
20/05/2016 09:48:23.955,1990
20/05/2016 09:48:23.959,1993
20/05/2016 09:48:23.963,1995
20/05/2016 09:48:23.967,1996
20/05/2016 09:48:23.971,1997
20/05/2016 09:48:23.975,1998
20/05/2016 09:48:23.979,1999
20/05/2016 09:48:23.983,1998
20/05/2016 09:48:23.987,1995
20/05/2016 09:48:23.991,1991
20/05/2016 09:48:23.995,1986
20/05/2016 09:48:23.999,1982
20/05/2016 09:48:24.003,1979
20/05/2016 09:48:24.007,1977
20/05/2016 09:48:24.011,1978
20/05/2016 09:48:24.015,1979
20/05/2016 09:48:24.019,1979
20/05/2016 09:48:24.023,1978
20/05/2016 09:48:24.027,1976
20/05/2016 09:48:24.031,1973
20/05/2016 09:48:24.035,1970
20/05/2016 09:48:24.039,1969
20/05/2016 09:48:24.043,1968
20/05/2016 09:48:24.047,1967
20/05/2016 09:48:24.051,1967
20/05/2016 09:48:24.055,1966
20/05/2016 09:48:24.059,1965
20/05/2016 09:48:24.063,1963
20/05/2016 09:48:24.067,1961
20/05/2016 09:48:24.071,1956
20/05/2016 09:48:24.075,1949
20/05/2016 09:48:24.079,1940
20/05/2016 09:48:24.083,1933
20/05/2016 09:48:24.087,1934
20/05/2016 09:48:24.091,1952
20/05/2016 09:48:24.095,1995
20/05/2016 09:48:24.099,2058
20/05/2016 09:48:24.103,2127
20/05/2016 09:48:24.107,2178
20/05/2016 09:48:24.111,2186
20/05/2016 09:48:24.115,2148
20/05/2016 09:48:24.119,2077
20/05/2016 09:48:24.123,2001
20/05/2016 09:48:24.127,1942
20/05/2016 09:48:24.131,1914
20/05/2016 09:48:24.135,1911
20/05/2016 09:48:24.139,1920
20/05/2016 09:48:24.143,1930
20/05/2016 09:48:24.147,1936
20/05/2016 09:48:24.151,1938
20/05/2016 09:48:24.155,1939
20/05/2016 09:48:24.159,1938
20/05/2016 09:48:24.163,1935
20/05/2016 09:48:24.167,1932
20/05/2016 09:48:24.171,1929
20/05/2016 09:48:24.175,1928
20/05/2016 09:48:24.179,1929
20/05/2016 09:48:24.183,1931
20/05/2016 09:48:24.187,1932
20/05/2016 09:48:24.191,1933
20/05/2016 09:48:24.195,1934
20/05/2016 09:48:24.199,1932
20/05/2016 09:48:24.203,1931
20/05/2016 09:48:24.207,1930
20/05/2016 09:48:24.211,1929
20/05/2016 09:48:24.215,1929
20/05/2016 09:48:24.219,1930
20/05/2016 09:48:24.223,1929
20/05/2016 09:48:24.227,1928
20/05/2016 09:48:24.231,1926
20/05/2016 09:48:24.235,1925
20/05/2016 09:48:24.239,1926
20/05/2016 09:48:24.243,1929
20/05/2016 09:48:24.247,1933
20/05/2016 09:48:24.251,1935
20/05/2016 09:48:24.255,1936
20/05/2016 09:48:24.259,1935
20/05/2016 09:48:24.263,1934
20/05/2016 09:48:24.267,1933
20/05/2016 09:48:24.271,1934
20/05/2016 09:48:24.275,1937
20/05/2016 09:48:24.279,1942
20/05/2016 09:48:24.283,1946
20/05/2016 09:48:24.287,1949
20/05/2016 09:48:24.291,1950
20/05/2016 09:48:24.295,1950
20/05/2016 09:48:24.299,1948
20/05/2016 09:48:24.303,1947
20/05/2016 09:48:24.307,1945
20/05/2016 09:48:24.311,1945
20/05/2016 09:48:24.315,1944
20/05/2016 09:48:24.319,1943
20/05/2016 09:48:24.323,1942
20/05/2016 09:48:24.327,1941
20/05/2016 09:48:24.331,1941
20/05/2016 09:48:24.335,1942
20/05/2016 09:48:24.339,1944
20/05/2016 09:48:24.343,1946
20/05/2016 09:48:24.347,1946
20/05/2016 09:48:24.351,1942
20/05/2016 09:48:24.355,1936
20/05/2016 09:48:24.359,1929
20/05/2016 09:48:24.363,1923
20/05/2016 09:48:24.367,1918
20/05/2016 09:48:24.371,1913
20/05/2016 09:48:24.375,1909
20/05/2016 09:48:24.379,1905
20/05/2016 09:48:24.383,1900
20/05/2016 09:48:24.387,1896
20/05/2016 09:48:24.391,1892
20/05/2016 09:48:24.395,1890
20/05/2016 09:48:24.399,1889
20/05/2016 09:48:24.403,1889
20/05/2016 09:48:24.407,1889
20/05/2016 09:48:24.411,1890
20/05/2016 09:48:24.415,1890
20/05/2016 09:48:24.419,1890
20/05/2016 09:48:24.423,1889
20/05/2016 09:48:24.427,1886
20/05/2016 09:48:24.431,1883
20/05/2016 09:48:24.435,1880
20/05/2016 09:48:24.439,1878
20/05/2016 09:48:24.443,1878
20/05/2016 09:48:24.447,1878
20/05/2016 09:48:24.451,1879
20/05/2016 09:48:24.455,1880
20/05/2016 09:48:24.459,1879
20/05/2016 09:48:24.463,1878
20/05/2016 09:48:24.467,1876
20/05/2016 09:48:24.471,1875
20/05/2016 09:48:24.475,1875
20/05/2016 09:48:24.479,1875
20/05/2016 09:48:24.483,1876
20/05/2016 09:48:24.487,1876
20/05/2016 09:48:24.491,1877
20/05/2016 09:48:24.495,1877
20/05/2016 09:48:24.499,1876
20/05/2016 09:48:24.503,1872
20/05/2016 09:48:24.507,1865
20/05/2016 09:48:24.511,1858
20/05/2016 09:48:24.515,1851
20/05/2016 09:48:24.519,1848
20/05/2016 09:48:24.523,1848
20/05/2016 09:48:24.527,1852
20/05/2016 09:48:24.531,1856
20/05/2016 09:48:24.535,1859
20/05/2016 09:48:24.539,1860
20/05/2016 09:48:24.543,1859
20/05/2016 09:48:24.547,1857
20/05/2016 09:48:24.551,1854
20/05/2016 09:48:24.555,1851
20/05/2016 09:48:24.559,1849
20/05/2016 09:48:24.563,1848
20/05/2016 09:48:24.567,1849
20/05/2016 09:48:24.571,1851
20/05/2016 09:48:24.575,1854
20/05/2016 09:48:24.579,1856
20/05/2016 09:48:24.583,1856
20/05/2016 09:48:24.587,1856
20/05/2016 09:48:24.591,1854
20/05/2016 09:48:24.595,1852
20/05/2016 09:48:24.599,1850
20/05/2016 09:48:24.603,1849
20/05/2016 09:48:24.607,1848
20/05/2016 09:48:24.611,1848
20/05/2016 09:48:24.615,1849
20/05/2016 09:48:24.619,1850
20/05/2016 09:48:24.623,1851
20/05/2016 09:48:24.627,1851
20/05/2016 09:48:24.631,1852
20/05/2016 09:48:24.635,1855
20/05/2016 09:48:24.639,1858
20/05/2016 09:48:24.643,1862
20/05/2016 09:48:24.647,1863
20/05/2016 09:48:24.651,1863
20/05/2016 09:48:24.655,1862
20/05/2016 09:48:24.659,1864
20/05/2016 09:48:24.663,1869
20/05/2016 09:48:24.667,1876
20/05/2016 09:48:24.671,1880
20/05/2016 09:48:24.675,1880
20/05/2016 09:48:24.679,1875
20/05/2016 09:48:24.683,1869
20/05/2016 09:48:24.687,1864
20/05/2016 09:48:24.691,1864
20/05/2016 09:48:24.695,1867
20/05/2016 09:48:24.699,1872
20/05/2016 09:48:24.703,1879
20/05/2016 09:48:24.707,1886
20/05/2016 09:48:24.711,1891
20/05/2016 09:48:24.715,1894
20/05/2016 09:48:24.719,1894
20/05/2016 09:48:24.723,1892
20/05/2016 09:48:24.727,1890
20/05/2016 09:48:24.731,1888
20/05/2016 09:48:24.735,1886
20/05/2016 09:48:24.739,1886
20/05/2016 09:48:24.743,1884
20/05/2016 09:48:24.747,1880
20/05/2016 09:48:24.751,1877
20/05/2016 09:48:24.755,1874
20/05/2016 09:48:24.759,1872
20/05/2016 09:48:24.763,1870
20/05/2016 09:48:24.767,1866
20/05/2016 09:48:24.771,1861
20/05/2016 09:48:24.775,1856
20/05/2016 09:48:24.779,1860
20/05/2016 09:48:24.783,1884
20/05/2016 09:48:24.787,1935
20/05/2016 09:48:24.791,2009
20/05/2016 09:48:24.795,2085
20/05/2016 09:48:24.799,2138
20/05/2016 09:48:24.803,2145
20/05/2016 09:48:24.807,2101
20/05/2016 09:48:24.811,2025
20/05/2016 09:48:24.815,1946
20/05/2016 09:48:24.819,1889
20/05/2016 09:48:24.823,1865
20/05/2016 09:48:24.827,1867
20/05/2016 09:48:24.831,1879
20/05/2016 09:48:24.835,1889
20/05/2016 09:48:24.839,1893
20/05/2016 09:48:24.843,1891
20/05/2016 09:48:24.847,1888
20/05/2016 09:48:24.851,1886
20/05/2016 09:48:24.855,1884
20/05/2016 09:48:24.859,1884
20/05/2016 09:48:24.863,1885
20/05/2016 09:48:24.867,1886
20/05/2016 09:48:24.871,1887
20/05/2016 09:48:24.875,1889
20/05/2016 09:48:24.879,1891
20/05/2016 09:48:24.883,1894
20/05/2016 09:48:24.887,1895
20/05/2016 09:48:24.891,1897
20/05/2016 09:48:24.895,1899
20/05/2016 09:48:24.899,1902
20/05/2016 09:48:24.903,1906
20/05/2016 09:48:24.907,1911
20/05/2016 09:48:24.911,1914
20/05/2016 09:48:24.915,1915
20/05/2016 09:48:24.919,1915
20/05/2016 09:48:24.923,1913
20/05/2016 09:48:24.927,1913
20/05/2016 09:48:24.931,1915
20/05/2016 09:48:24.935,1919
20/05/2016 09:48:24.939,1922
20/05/2016 09:48:24.943,1925
20/05/2016 09:48:24.947,1925
20/05/2016 09:48:24.951,1925
20/05/2016 09:48:24.955,1925
20/05/2016 09:48:24.959,1925
20/05/2016 09:48:24.963,1928
20/05/2016 09:48:24.967,1933
20/05/2016 09:48:24.971,1938
20/05/2016 09:48:24.975,1943
20/05/2016 09:48:24.979,1947
20/05/2016 09:48:24.983,1949
20/05/2016 09:48:24.987,1952
20/05/2016 09:48:24.991,1954
20/05/2016 09:48:24.995,1957
20/05/2016 09:48:24.999,1960
20/05/2016 09:48:25.003,1962
20/05/2016 09:48:25.007,1963
20/05/2016 09:48:25.011,1963
20/05/2016 09:48:25.015,1964
20/05/2016 09:48:25.019,1964
20/05/2016 09:48:25.023,1965
20/05/2016 09:48:25.027,1967
20/05/2016 09:48:25.031,1969
20/05/2016 09:48:25.035,1970
20/05/2016 09:48:25.039,1970
20/05/2016 09:48:25.043,1967
20/05/2016 09:48:25.047,1962
20/05/2016 09:48:25.051,1955
20/05/2016 09:48:25.055,1947
20/05/2016 09:48:25.059,1941
20/05/2016 09:48:25.063,1934
20/05/2016 09:48:25.067,1927
20/05/2016 09:48:25.071,1918
20/05/2016 09:48:25.075,1908
20/05/2016 09:48:25.079,1900
20/05/2016 09:48:25.083,1894
20/05/2016 09:48:25.087,1892
20/05/2016 09:48:25.091,1891
20/05/2016 09:48:25.095,1892
20/05/2016 09:48:25.099,1892
20/05/2016 09:48:25.103,1894
20/05/2016 09:48:25.107,1895
20/05/2016 09:48:25.111,1897
20/05/2016 09:48:25.115,1897
20/05/2016 09:48:25.119,1897
20/05/2016 09:48:25.123,1895
20/05/2016 09:48:25.127,1894
20/05/2016 09:48:25.131,1891
20/05/2016 09:48:25.135,1887
20/05/2016 09:48:25.139,1882
20/05/2016 09:48:25.143,1877
20/05/2016 09:48:25.147,1873
20/05/2016 09:48:25.151,1873
20/05/2016 09:48:25.155,1877
20/05/2016 09:48:25.159,1884
20/05/2016 09:48:25.163,1891
20/05/2016 09:48:25.167,1897
20/05/2016 09:48:25.171,1902
20/05/2016 09:48:25.175,1905
20/05/2016 09:48:25.179,1908
20/05/2016 09:48:25.183,1912
20/05/2016 09:48:25.187,1915
20/05/2016 09:48:25.191,1919
20/05/2016 09:48:25.195,1921
20/05/2016 09:48:25.199,1922
20/05/2016 09:48:25.203,1924
20/05/2016 09:48:25.207,1926
20/05/2016 09:48:25.211,1929
20/05/2016 09:48:25.215,1932
20/05/2016 09:48:25.219,1934
20/05/2016 09:48:25.223,1936
20/05/2016 09:48:25.227,1936
20/05/2016 09:48:25.231,1936
20/05/2016 09:48:25.235,1934
20/05/2016 09:48:25.239,1932
20/05/2016 09:48:25.243,1930
20/05/2016 09:48:25.247,1929
20/05/2016 09:48:25.251,1929
20/05/2016 09:48:25.255,1930
20/05/2016 09:48:25.259,1929
20/05/2016 09:48:25.263,1928
20/05/2016 09:48:25.267,1927
20/05/2016 09:48:25.271,1925
20/05/2016 09:48:25.275,1924
20/05/2016 09:48:25.279,1925
20/05/2016 09:48:25.283,1927
20/05/2016 09:48:25.287,1929
20/05/2016 09:48:25.291,1930
20/05/2016 09:48:25.295,1931
20/05/2016 09:48:25.299,1931
20/05/2016 09:48:25.303,1931
20/05/2016 09:48:25.307,1932
20/05/2016 09:48:25.311,1934
20/05/2016 09:48:25.315,1935
20/05/2016 09:48:25.319,1935
20/05/2016 09:48:25.323,1934
20/05/2016 09:48:25.327,1933
20/05/2016 09:48:25.331,1933
20/05/2016 09:48:25.335,1935
20/05/2016 09:48:25.339,1938
20/05/2016 09:48:25.343,1941
20/05/2016 09:48:25.347,1943
20/05/2016 09:48:25.351,1943
20/05/2016 09:48:25.355,1942
20/05/2016 09:48:25.359,1940
20/05/2016 09:48:25.363,1939
20/05/2016 09:48:25.367,1939
20/05/2016 09:48:25.371,1939
20/05/2016 09:48:25.375,1940
20/05/2016 09:48:25.379,1941
20/05/2016 09:48:25.383,1942
20/05/2016 09:48:25.387,1945
20/05/2016 09:48:25.391,1949
20/05/2016 09:48:25.395,1953
20/05/2016 09:48:25.399,1955
20/05/2016 09:48:25.403,1956
20/05/2016 09:48:25.407,1955
20/05/2016 09:48:25.411,1955
20/05/2016 09:48:25.415,1956
20/05/2016 09:48:25.419,1959
20/05/2016 09:48:25.423,1962
20/05/2016 09:48:25.427,1965
20/05/2016 09:48:25.431,1967
20/05/2016 09:48:25.435,1967
20/05/2016 09:48:25.439,1965
20/05/2016 09:48:25.443,1960
20/05/2016 09:48:25.447,1953
20/05/2016 09:48:25.451,1945
20/05/2016 09:48:25.455,1945
20/05/2016 09:48:25.459,1961
20/05/2016 09:48:25.463,2002
20/05/2016 09:48:25.467,2067
20/05/2016 09:48:25.471,2144
20/05/2016 09:48:25.475,2206
20/05/2016 09:48:25.479,2230
20/05/2016 09:48:25.483,2203
20/05/2016 09:48:25.487,2136
20/05/2016 09:48:25.491,2055
20/05/2016 09:48:25.495,1990
20/05/2016 09:48:25.499,1954
20/05/2016 09:48:25.503,1948
20/05/2016 09:48:25.507,1962
20/05/2016 09:48:25.511,1977
20/05/2016 09:48:25.515,1987
20/05/2016 09:48:25.519,1990
20/05/2016 09:48:25.523,1989
20/05/2016 09:48:25.527,1987
20/05/2016 09:48:25.531,1986
20/05/2016 09:48:25.535,1985
20/05/2016 09:48:25.539,1985
20/05/2016 09:48:25.543,1985
20/05/2016 09:48:25.547,1985
20/05/2016 09:48:25.551,1985
20/05/2016 09:48:25.555,1985
20/05/2016 09:48:25.559,1986
20/05/2016 09:48:25.563,1986
20/05/2016 09:48:25.567,1987
20/05/2016 09:48:25.571,1987
20/05/2016 09:48:25.575,1986
20/05/2016 09:48:25.579,1985
20/05/2016 09:48:25.583,1984
20/05/2016 09:48:25.587,1984
20/05/2016 09:48:25.591,1985
20/05/2016 09:48:25.595,1987
20/05/2016 09:48:25.599,1988
20/05/2016 09:48:25.603,1990
20/05/2016 09:48:25.607,1992
20/05/2016 09:48:25.611,1995
20/05/2016 09:48:25.615,1997
20/05/2016 09:48:25.619,2001
20/05/2016 09:48:25.623,2005
20/05/2016 09:48:25.627,2009
20/05/2016 09:48:25.631,2014
20/05/2016 09:48:25.635,2019
20/05/2016 09:48:25.639,2024
20/05/2016 09:48:25.643,2029
20/05/2016 09:48:25.647,2033
20/05/2016 09:48:25.651,2036
20/05/2016 09:48:25.655,2038
20/05/2016 09:48:25.659,2040
20/05/2016 09:48:25.663,2042
20/05/2016 09:48:25.667,2043
20/05/2016 09:48:25.671,2045
20/05/2016 09:48:25.675,2048
20/05/2016 09:48:25.679,2049
20/05/2016 09:48:25.683,2052
20/05/2016 09:48:25.687,2055
20/05/2016 09:48:25.691,2058
20/05/2016 09:48:25.695,2059
20/05/2016 09:48:25.699,2059
20/05/2016 09:48:25.703,2058
20/05/2016 09:48:25.707,2056
20/05/2016 09:48:25.711,2052
20/05/2016 09:48:25.715,2048
20/05/2016 09:48:25.719,2041
20/05/2016 09:48:25.723,2034
20/05/2016 09:48:25.727,2026
20/05/2016 09:48:25.731,2017
20/05/2016 09:48:25.735,2008
20/05/2016 09:48:25.739,2000
20/05/2016 09:48:25.743,1995
20/05/2016 09:48:25.747,1992
20/05/2016 09:48:25.751,1989
20/05/2016 09:48:25.755,1987
20/05/2016 09:48:25.759,1985
20/05/2016 09:48:25.763,1984
20/05/2016 09:48:25.767,1984
20/05/2016 09:48:25.771,1985
20/05/2016 09:48:25.775,1986
20/05/2016 09:48:25.779,1987
20/05/2016 09:48:25.783,1986
20/05/2016 09:48:25.787,1985
20/05/2016 09:48:25.791,1983
20/05/2016 09:48:25.795,1981
20/05/2016 09:48:25.799,1980
20/05/2016 09:48:25.803,1981
20/05/2016 09:48:25.807,1983
20/05/2016 09:48:25.811,1987
20/05/2016 09:48:25.815,1993
20/05/2016 09:48:25.819,1998
20/05/2016 09:48:25.823,2002
20/05/2016 09:48:25.827,2004
20/05/2016 09:48:25.831,2004
20/05/2016 09:48:25.835,2004
20/05/2016 09:48:25.839,2005
20/05/2016 09:48:25.843,2008
20/05/2016 09:48:25.847,2013
20/05/2016 09:48:25.851,2019
20/05/2016 09:48:25.855,2026
20/05/2016 09:48:25.859,2031
20/05/2016 09:48:25.863,2034
20/05/2016 09:48:25.867,2036
20/05/2016 09:48:25.871,2038
20/05/2016 09:48:25.875,2042
20/05/2016 09:48:25.879,2046
20/05/2016 09:48:25.883,2049
20/05/2016 09:48:25.887,2052
20/05/2016 09:48:25.891,2055
20/05/2016 09:48:25.895,2057
20/05/2016 09:48:25.899,2058
20/05/2016 09:48:25.903,2061
20/05/2016 09:48:25.907,2063
20/05/2016 09:48:25.911,2064
20/05/2016 09:48:25.915,2065
20/05/2016 09:48:25.919,2065
20/05/2016 09:48:25.923,2065
20/05/2016 09:48:25.927,2066
20/05/2016 09:48:25.931,2067
20/05/2016 09:48:25.935,2068
20/05/2016 09:48:25.939,2069
20/05/2016 09:48:25.943,2070
20/05/2016 09:48:25.947,2072
20/05/2016 09:48:25.951,2074
20/05/2016 09:48:25.955,2076
20/05/2016 09:48:25.959,2079
20/05/2016 09:48:25.963,2081
20/05/2016 09:48:25.967,2082
20/05/2016 09:48:25.971,2084
20/05/2016 09:48:25.975,2087
20/05/2016 09:48:25.979,2089
20/05/2016 09:48:25.983,2092
20/05/2016 09:48:25.987,2093
20/05/2016 09:48:25.991,2093
20/05/2016 09:48:25.995,2092
20/05/2016 09:48:25.999,2090
20/05/2016 09:48:26.003,2089
20/05/2016 09:48:26.007,2089
20/05/2016 09:48:26.011,2091
20/05/2016 09:48:26.015,2092
20/05/2016 09:48:26.019,2094
20/05/2016 09:48:26.023,2096
20/05/2016 09:48:26.027,2098
20/05/2016 09:48:26.031,2100
20/05/2016 09:48:26.035,2102
20/05/2016 09:48:26.039,2101
20/05/2016 09:48:26.043,2098
20/05/2016 09:48:26.047,2094
20/05/2016 09:48:26.051,2088
20/05/2016 09:48:26.055,2082
20/05/2016 09:48:26.059,2078
20/05/2016 09:48:26.063,2076
20/05/2016 09:48:26.067,2075
20/05/2016 09:48:26.071,2074
20/05/2016 09:48:26.075,2072
20/05/2016 09:48:26.079,2071
20/05/2016 09:48:26.083,2069
20/05/2016 09:48:26.087,2069
20/05/2016 09:48:26.091,2069
20/05/2016 09:48:26.095,2070
20/05/2016 09:48:26.099,2070
20/05/2016 09:48:26.103,2070
20/05/2016 09:48:26.107,2069
20/05/2016 09:48:26.111,2067
20/05/2016 09:48:26.115,2066
20/05/2016 09:48:26.119,2065
20/05/2016 09:48:26.123,2065
20/05/2016 09:48:26.127,2064
20/05/2016 09:48:26.131,2063
20/05/2016 09:48:26.135,2059
20/05/2016 09:48:26.139,2051
20/05/2016 09:48:26.143,2044
20/05/2016 09:48:26.147,2041
20/05/2016 09:48:26.151,2049
20/05/2016 09:48:26.155,2079
20/05/2016 09:48:26.159,2132
20/05/2016 09:48:26.163,2201
20/05/2016 09:48:26.167,2264
20/05/2016 09:48:26.171,2299
20/05/2016 09:48:26.175,2288
20/05/2016 09:48:26.179,2235
20/05/2016 09:48:26.183,2161
20/05/2016 09:48:26.187,2093
20/05/2016 09:48:26.191,2051
20/05/2016 09:48:26.195,2038
20/05/2016 09:48:26.199,2044
20/05/2016 09:48:26.203,2054
20/05/2016 09:48:26.207,2061
20/05/2016 09:48:26.211,2062
20/05/2016 09:48:26.215,2059
20/05/2016 09:48:26.219,2056
20/05/2016 09:48:26.223,2055
20/05/2016 09:48:26.227,2055
20/05/2016 09:48:26.231,2057
20/05/2016 09:48:26.235,2060
20/05/2016 09:48:26.239,2062
20/05/2016 09:48:26.243,2064
20/05/2016 09:48:26.247,2066
20/05/2016 09:48:26.251,2068
20/05/2016 09:48:26.255,2070
20/05/2016 09:48:26.259,2071
20/05/2016 09:48:26.263,2073
20/05/2016 09:48:26.267,2075
20/05/2016 09:48:26.271,2077
20/05/2016 09:48:26.275,2080
20/05/2016 09:48:26.279,2083
20/05/2016 09:48:26.283,2086
20/05/2016 09:48:26.287,2088
20/05/2016 09:48:26.291,2089
20/05/2016 09:48:26.295,2088
20/05/2016 09:48:26.299,2088
20/05/2016 09:48:26.303,2088
20/05/2016 09:48:26.307,2088
20/05/2016 09:48:26.311,2089
20/05/2016 09:48:26.315,2091
20/05/2016 09:48:26.319,2093
20/05/2016 09:48:26.323,2095
20/05/2016 09:48:26.327,2098
20/05/2016 09:48:26.331,2100
20/05/2016 09:48:26.335,2103
20/05/2016 09:48:26.339,2105
20/05/2016 09:48:26.343,2107
20/05/2016 09:48:26.347,2109
20/05/2016 09:48:26.351,2111
20/05/2016 09:48:26.355,2115
20/05/2016 09:48:26.359,2120
20/05/2016 09:48:26.363,2124
20/05/2016 09:48:26.367,2128
20/05/2016 09:48:26.371,2130
20/05/2016 09:48:26.375,2131
20/05/2016 09:48:26.379,2131
20/05/2016 09:48:26.383,2131
20/05/2016 09:48:26.387,2131
20/05/2016 09:48:26.391,2131
20/05/2016 09:48:26.395,2130
20/05/2016 09:48:26.399,2128
20/05/2016 09:48:26.403,2126
20/05/2016 09:48:26.407,2124
20/05/2016 09:48:26.411,2120
20/05/2016 09:48:26.415,2116
20/05/2016 09:48:26.419,2110
20/05/2016 09:48:26.423,2104
20/05/2016 09:48:26.427,2098
20/05/2016 09:48:26.431,2092
20/05/2016 09:48:26.435,2086
20/05/2016 09:48:26.439,2080
20/05/2016 09:48:26.443,2075
20/05/2016 09:48:26.447,2072
20/05/2016 09:48:26.451,2069
20/05/2016 09:48:26.455,2067
20/05/2016 09:48:26.459,2065
20/05/2016 09:48:26.463,2064
20/05/2016 09:48:26.467,2063
20/05/2016 09:48:26.471,2063
20/05/2016 09:48:26.475,2063
20/05/2016 09:48:26.479,2062
20/05/2016 09:48:26.483,2061
20/05/2016 09:48:26.487,2060
20/05/2016 09:48:26.491,2061
20/05/2016 09:48:26.495,2061
20/05/2016 09:48:26.499,2063
20/05/2016 09:48:26.503,2064
20/05/2016 09:48:26.507,2064
20/05/2016 09:48:26.511,2064
20/05/2016 09:48:26.515,2063
20/05/2016 09:48:26.519,2062
20/05/2016 09:48:26.523,2062
20/05/2016 09:48:26.527,2063
20/05/2016 09:48:26.531,2064
20/05/2016 09:48:26.535,2065
20/05/2016 09:48:26.539,2065
20/05/2016 09:48:26.543,2064
20/05/2016 09:48:26.547,2063
20/05/2016 09:48:26.551,2061
20/05/2016 09:48:26.555,2060
20/05/2016 09:48:26.559,2060
20/05/2016 09:48:26.563,2060
20/05/2016 09:48:26.567,2061
20/05/2016 09:48:26.571,2061
20/05/2016 09:48:26.575,2062
20/05/2016 09:48:26.579,2061
20/05/2016 09:48:26.583,2061
20/05/2016 09:48:26.587,2060
20/05/2016 09:48:26.591,2059
20/05/2016 09:48:26.595,2058
20/05/2016 09:48:26.599,2056
20/05/2016 09:48:26.603,2055
20/05/2016 09:48:26.607,2056
20/05/2016 09:48:26.611,2057
20/05/2016 09:48:26.615,2057
20/05/2016 09:48:26.619,2057
20/05/2016 09:48:26.623,2056
20/05/2016 09:48:26.627,2053
20/05/2016 09:48:26.631,2051
20/05/2016 09:48:26.635,2049
20/05/2016 09:48:26.639,2049
20/05/2016 09:48:26.643,2049
20/05/2016 09:48:26.647,2050
20/05/2016 09:48:26.651,2050
20/05/2016 09:48:26.655,2050
20/05/2016 09:48:26.659,2048
20/05/2016 09:48:26.663,2047
20/05/2016 09:48:26.667,2045
20/05/2016 09:48:26.671,2043
20/05/2016 09:48:26.675,2042
20/05/2016 09:48:26.679,2042
20/05/2016 09:48:26.683,2042
20/05/2016 09:48:26.687,2043
20/05/2016 09:48:26.691,2045
20/05/2016 09:48:26.695,2045
20/05/2016 09:48:26.699,2046
20/05/2016 09:48:26.703,2045
20/05/2016 09:48:26.707,2043
20/05/2016 09:48:26.711,2040
20/05/2016 09:48:26.715,2038
20/05/2016 09:48:26.719,2036
20/05/2016 09:48:26.723,2036
20/05/2016 09:48:26.727,2037
20/05/2016 09:48:26.731,2039
20/05/2016 09:48:26.735,2041
20/05/2016 09:48:26.739,2043
20/05/2016 09:48:26.743,2044
20/05/2016 09:48:26.747,2045
20/05/2016 09:48:26.751,2046
20/05/2016 09:48:26.755,2046
20/05/2016 09:48:26.759,2045
20/05/2016 09:48:26.763,2045
20/05/2016 09:48:26.767,2045
20/05/2016 09:48:26.771,2045
20/05/2016 09:48:26.775,2046
20/05/2016 09:48:26.779,2046
20/05/2016 09:48:26.783,2045
20/05/2016 09:48:26.787,2042
20/05/2016 09:48:26.791,2037
20/05/2016 09:48:26.795,2030
20/05/2016 09:48:26.799,2024
20/05/2016 09:48:26.803,2019
20/05/2016 09:48:26.807,2015
20/05/2016 09:48:26.811,2013
20/05/2016 09:48:26.815,2012
20/05/2016 09:48:26.819,2011
20/05/2016 09:48:26.823,2010
20/05/2016 09:48:26.827,2010
20/05/2016 09:48:26.831,2011
20/05/2016 09:48:26.835,2011
20/05/2016 09:48:26.839,2013
20/05/2016 09:48:26.843,2014
20/05/2016 09:48:26.847,2017
20/05/2016 09:48:26.851,2019
20/05/2016 09:48:26.855,2019
20/05/2016 09:48:26.859,2014
20/05/2016 09:48:26.863,2007
20/05/2016 09:48:26.867,2003
20/05/2016 09:48:26.871,2012
20/05/2016 09:48:26.875,2045
20/05/2016 09:48:26.879,2102
20/05/2016 09:48:26.883,2176
20/05/2016 09:48:26.887,2239
20/05/2016 09:48:26.891,2268
20/05/2016 09:48:26.895,2247
20/05/2016 09:48:26.899,2187
20/05/2016 09:48:26.903,2110
20/05/2016 09:48:26.907,2047
20/05/2016 09:48:26.911,2011
20/05/2016 09:48:26.915,2002
20/05/2016 09:48:26.919,2011
20/05/2016 09:48:26.923,2022
20/05/2016 09:48:26.927,2030
20/05/2016 09:48:26.931,2033
20/05/2016 09:48:26.935,2034
20/05/2016 09:48:26.939,2034
20/05/2016 09:48:26.943,2034
20/05/2016 09:48:26.947,2035
20/05/2016 09:48:26.951,2037
20/05/2016 09:48:26.955,2040
20/05/2016 09:48:26.959,2042
20/05/2016 09:48:26.963,2043
20/05/2016 09:48:26.967,2043
20/05/2016 09:48:26.971,2042
20/05/2016 09:48:26.975,2042
20/05/2016 09:48:26.979,2043
20/05/2016 09:48:26.983,2045
20/05/2016 09:48:26.987,2048
20/05/2016 09:48:26.991,2050
20/05/2016 09:48:26.995,2053
20/05/2016 09:48:26.999,2057
20/05/2016 09:48:27.003,2060
20/05/2016 09:48:27.007,2062
20/05/2016 09:48:27.011,2063
20/05/2016 09:48:27.015,2063
20/05/2016 09:48:27.019,2061
20/05/2016 09:48:27.023,2059
20/05/2016 09:48:27.027,2058
20/05/2016 09:48:27.031,2058
20/05/2016 09:48:27.035,2059
20/05/2016 09:48:27.039,2062
20/05/2016 09:48:27.043,2064
20/05/2016 09:48:27.047,2066
20/05/2016 09:48:27.051,2067
20/05/2016 09:48:27.055,2069
20/05/2016 09:48:27.059,2071
20/05/2016 09:48:27.063,2073
20/05/2016 09:48:27.067,2075
20/05/2016 09:48:27.071,2076
20/05/2016 09:48:27.075,2078
20/05/2016 09:48:27.079,2079
20/05/2016 09:48:27.083,2081
20/05/2016 09:48:27.087,2083
20/05/2016 09:48:27.091,2085
20/05/2016 09:48:27.095,2085
20/05/2016 09:48:27.099,2085
20/05/2016 09:48:27.103,2084
20/05/2016 09:48:27.107,2082
20/05/2016 09:48:27.111,2081
20/05/2016 09:48:27.115,2080
20/05/2016 09:48:27.119,2080
20/05/2016 09:48:27.123,2079
20/05/2016 09:48:27.127,2077
20/05/2016 09:48:27.131,2074
20/05/2016 09:48:27.135,2071
20/05/2016 09:48:27.139,2067
20/05/2016 09:48:27.143,2063
20/05/2016 09:48:27.147,2059
20/05/2016 09:48:27.151,2053
20/05/2016 09:48:27.155,2047
20/05/2016 09:48:27.159,2040
20/05/2016 09:48:27.163,2035
20/05/2016 09:48:27.167,2034
20/05/2016 09:48:27.171,2035
20/05/2016 09:48:27.175,2037
20/05/2016 09:48:27.179,2038
20/05/2016 09:48:27.183,2038
20/05/2016 09:48:27.187,2036
20/05/2016 09:48:27.191,2035
20/05/2016 09:48:27.195,2034
20/05/2016 09:48:27.199,2035
20/05/2016 09:48:27.203,2037
20/05/2016 09:48:27.207,2040
20/05/2016 09:48:27.211,2044
20/05/2016 09:48:27.215,2048
20/05/2016 09:48:27.219,2049
20/05/2016 09:48:27.223,2051
20/05/2016 09:48:27.227,2052
20/05/2016 09:48:27.231,2053
20/05/2016 09:48:27.235,2052
20/05/2016 09:48:27.239,2051
20/05/2016 09:48:27.243,2050
20/05/2016 09:48:27.247,2050
20/05/2016 09:48:27.251,2051
20/05/2016 09:48:27.255,2052
20/05/2016 09:48:27.259,2054
20/05/2016 09:48:27.263,2055
20/05/2016 09:48:27.267,2054
20/05/2016 09:48:27.271,2052
20/05/2016 09:48:27.275,2051
20/05/2016 09:48:27.279,2052
20/05/2016 09:48:27.283,2053
20/05/2016 09:48:27.287,2055
20/05/2016 09:48:27.291,2056
20/05/2016 09:48:27.295,2056
20/05/2016 09:48:27.299,2055
20/05/2016 09:48:27.303,2053
20/05/2016 09:48:27.307,2051
20/05/2016 09:48:27.311,2050
20/05/2016 09:48:27.315,2049
20/05/2016 09:48:27.319,2048
20/05/2016 09:48:27.323,2046
20/05/2016 09:48:27.327,2045
20/05/2016 09:48:27.331,2045
20/05/2016 09:48:27.335,2044
20/05/2016 09:48:27.339,2044
20/05/2016 09:48:27.343,2042
20/05/2016 09:48:27.347,2040
20/05/2016 09:48:27.351,2038
20/05/2016 09:48:27.355,2037
20/05/2016 09:48:27.359,2037
20/05/2016 09:48:27.363,2040
20/05/2016 09:48:27.367,2043
20/05/2016 09:48:27.371,2045
20/05/2016 09:48:27.375,2046
20/05/2016 09:48:27.379,2045
20/05/2016 09:48:27.383,2043
20/05/2016 09:48:27.387,2041
20/05/2016 09:48:27.391,2040
20/05/2016 09:48:27.395,2039
20/05/2016 09:48:27.399,2039
20/05/2016 09:48:27.403,2038
20/05/2016 09:48:27.407,2037
20/05/2016 09:48:27.411,2036
20/05/2016 09:48:27.415,2035
20/05/2016 09:48:27.419,2033
20/05/2016 09:48:27.423,2031
20/05/2016 09:48:27.427,2030
20/05/2016 09:48:27.431,2029
20/05/2016 09:48:27.435,2029
20/05/2016 09:48:27.439,2029
20/05/2016 09:48:27.443,2029
20/05/2016 09:48:27.447,2030
20/05/2016 09:48:27.451,2031
20/05/2016 09:48:27.455,2033
20/05/2016 09:48:27.459,2035
20/05/2016 09:48:27.463,2035
20/05/2016 09:48:27.467,2034
20/05/2016 09:48:27.471,2030
20/05/2016 09:48:27.475,2027
20/05/2016 09:48:27.479,2024
20/05/2016 09:48:27.483,2023
20/05/2016 09:48:27.487,2024
20/05/2016 09:48:27.491,2025
20/05/2016 09:48:27.495,2026
20/05/2016 09:48:27.499,2026
20/05/2016 09:48:27.503,2025
20/05/2016 09:48:27.507,2024
20/05/2016 09:48:27.511,2024
20/05/2016 09:48:27.515,2024
20/05/2016 09:48:27.519,2023
20/05/2016 09:48:27.523,2023
20/05/2016 09:48:27.527,2022
20/05/2016 09:48:27.531,2022
20/05/2016 09:48:27.535,2021
20/05/2016 09:48:27.539,2021
20/05/2016 09:48:27.543,2021
20/05/2016 09:48:27.547,2021
20/05/2016 09:48:27.551,2021
20/05/2016 09:48:27.555,2020
20/05/2016 09:48:27.559,2016
20/05/2016 09:48:27.563,2010
20/05/2016 09:48:27.567,2002
20/05/2016 09:48:27.571,1998
20/05/2016 09:48:27.575,2004
20/05/2016 09:48:27.579,2032
20/05/2016 09:48:27.583,2083
20/05/2016 09:48:27.587,2152
20/05/2016 09:48:27.591,2215
20/05/2016 09:48:27.595,2248
20/05/2016 09:48:27.599,2232
20/05/2016 09:48:27.603,2174
20/05/2016 09:48:27.607,2095
20/05/2016 09:48:27.611,2024
20/05/2016 09:48:27.615,1980
20/05/2016 09:48:27.619,1967
20/05/2016 09:48:27.623,1973
20/05/2016 09:48:27.627,1985
20/05/2016 09:48:27.631,1991
20/05/2016 09:48:27.635,1992
20/05/2016 09:48:27.639,1988
20/05/2016 09:48:27.643,1984
20/05/2016 09:48:27.647,1980
20/05/2016 09:48:27.651,1977
20/05/2016 09:48:27.655,1975
20/05/2016 09:48:27.659,1974
20/05/2016 09:48:27.663,1973
20/05/2016 09:48:27.667,1972
20/05/2016 09:48:27.671,1971
20/05/2016 09:48:27.675,1970
20/05/2016 09:48:27.679,1969
20/05/2016 09:48:27.683,1969
20/05/2016 09:48:27.687,1969
20/05/2016 09:48:27.691,1969
20/05/2016 09:48:27.695,1969
20/05/2016 09:48:27.699,1967
20/05/2016 09:48:27.703,1966
20/05/2016 09:48:27.707,1965
20/05/2016 09:48:27.711,1964
20/05/2016 09:48:27.715,1964
20/05/2016 09:48:27.719,1964
20/05/2016 09:48:27.723,1964
20/05/2016 09:48:27.727,1964
20/05/2016 09:48:27.731,1965
20/05/2016 09:48:27.735,1965
20/05/2016 09:48:27.739,1965
20/05/2016 09:48:27.743,1966
20/05/2016 09:48:27.747,1966
20/05/2016 09:48:27.751,1965
20/05/2016 09:48:27.755,1964
20/05/2016 09:48:27.759,1964
20/05/2016 09:48:27.763,1966
20/05/2016 09:48:27.767,1969
20/05/2016 09:48:27.771,1972
20/05/2016 09:48:27.775,1974
20/05/2016 09:48:27.779,1974
20/05/2016 09:48:27.783,1972
20/05/2016 09:48:27.787,1971
20/05/2016 09:48:27.791,1970
20/05/2016 09:48:27.795,1969
20/05/2016 09:48:27.799,1967
20/05/2016 09:48:27.803,1965
20/05/2016 09:48:27.807,1962
20/05/2016 09:48:27.811,1960
20/05/2016 09:48:27.815,1959
20/05/2016 09:48:27.819,1958
20/05/2016 09:48:27.823,1958
20/05/2016 09:48:27.827,1957
20/05/2016 09:48:27.831,1955
20/05/2016 09:48:27.835,1951
20/05/2016 09:48:27.839,1946
20/05/2016 09:48:27.843,1940
20/05/2016 09:48:27.847,1933
20/05/2016 09:48:27.851,1927
20/05/2016 09:48:27.855,1921
20/05/2016 09:48:27.859,1915
20/05/2016 09:48:27.863,1910
20/05/2016 09:48:27.867,1905
20/05/2016 09:48:27.871,1899
20/05/2016 09:48:27.875,1895
20/05/2016 09:48:27.879,1893
20/05/2016 09:48:27.883,1893
20/05/2016 09:48:27.887,1895
20/05/2016 09:48:27.891,1898
20/05/2016 09:48:27.895,1901
20/05/2016 09:48:27.899,1903
20/05/2016 09:48:27.903,1903
20/05/2016 09:48:27.907,1904
20/05/2016 09:48:27.911,1903
20/05/2016 09:48:27.915,1902
20/05/2016 09:48:27.919,1900
20/05/2016 09:48:27.923,1899
20/05/2016 09:48:27.927,1899
20/05/2016 09:48:27.931,1900
20/05/2016 09:48:27.935,1903
20/05/2016 09:48:27.939,1906
20/05/2016 09:48:27.943,1910
20/05/2016 09:48:27.947,1912
20/05/2016 09:48:27.951,1913
20/05/2016 09:48:27.955,1914
20/05/2016 09:48:27.959,1915
20/05/2016 09:48:27.963,1916
20/05/2016 09:48:27.967,1918
20/05/2016 09:48:27.971,1920
20/05/2016 09:48:27.975,1922
20/05/2016 09:48:27.979,1923
20/05/2016 09:48:27.983,1923
20/05/2016 09:48:27.987,1923
20/05/2016 09:48:27.991,1923
20/05/2016 09:48:27.995,1923
20/05/2016 09:48:27.999,1923
20/05/2016 09:48:28.003,1923
20/05/2016 09:48:28.007,1923
20/05/2016 09:48:28.011,1923
20/05/2016 09:48:28.015,1925
20/05/2016 09:48:28.019,1926
20/05/2016 09:48:28.023,1928
20/05/2016 09:48:28.027,1929
20/05/2016 09:48:28.031,1928
20/05/2016 09:48:28.035,1927
20/05/2016 09:48:28.039,1925
20/05/2016 09:48:28.043,1924
20/05/2016 09:48:28.047,1925
20/05/2016 09:48:28.051,1926
20/05/2016 09:48:28.055,1928
20/05/2016 09:48:28.059,1929
20/05/2016 09:48:28.063,1929
20/05/2016 09:48:28.067,1928
20/05/2016 09:48:28.071,1926
20/05/2016 09:48:28.075,1924
20/05/2016 09:48:28.079,1922
20/05/2016 09:48:28.083,1919
20/05/2016 09:48:28.087,1915
20/05/2016 09:48:28.091,1913
20/05/2016 09:48:28.095,1911
20/05/2016 09:48:28.099,1911
20/05/2016 09:48:28.103,1912
20/05/2016 09:48:28.107,1914
20/05/2016 09:48:28.111,1913
20/05/2016 09:48:28.115,1912
20/05/2016 09:48:28.119,1909
20/05/2016 09:48:28.123,1907
20/05/2016 09:48:28.127,1907
20/05/2016 09:48:28.131,1910
20/05/2016 09:48:28.135,1915
20/05/2016 09:48:28.139,1921
20/05/2016 09:48:28.143,1926
20/05/2016 09:48:28.147,1928
20/05/2016 09:48:28.151,1927
20/05/2016 09:48:28.155,1925
20/05/2016 09:48:28.159,1924
20/05/2016 09:48:28.163,1925
20/05/2016 09:48:28.167,1929
20/05/2016 09:48:28.171,1934
20/05/2016 09:48:28.175,1939
20/05/2016 09:48:28.179,1943
20/05/2016 09:48:28.183,1944
20/05/2016 09:48:28.187,1944
20/05/2016 09:48:28.191,1943
20/05/2016 09:48:28.195,1942
20/05/2016 09:48:28.199,1940
20/05/2016 09:48:28.203,1940
20/05/2016 09:48:28.207,1941
20/05/2016 09:48:28.211,1943
20/05/2016 09:48:28.215,1945
20/05/2016 09:48:28.219,1946
20/05/2016 09:48:28.223,1945
20/05/2016 09:48:28.227,1943
20/05/2016 09:48:28.231,1941
20/05/2016 09:48:28.235,1939
20/05/2016 09:48:28.239,1938
20/05/2016 09:48:28.243,1938
20/05/2016 09:48:28.247,1938
20/05/2016 09:48:28.251,1937
20/05/2016 09:48:28.255,1935
20/05/2016 09:48:28.259,1931
20/05/2016 09:48:28.263,1927
20/05/2016 09:48:28.267,1922
20/05/2016 09:48:28.271,1920
20/05/2016 09:48:28.275,1920
20/05/2016 09:48:28.279,1922
20/05/2016 09:48:28.283,1923
20/05/2016 09:48:28.287,1921
20/05/2016 09:48:28.291,1914
20/05/2016 09:48:28.295,1909
20/05/2016 09:48:28.299,1911
20/05/2016 09:48:28.303,1934
20/05/2016 09:48:28.307,1981
20/05/2016 09:48:28.311,2049
20/05/2016 09:48:28.315,2121
20/05/2016 09:48:28.319,2171
20/05/2016 09:48:28.323,2179
20/05/2016 09:48:28.327,2141
20/05/2016 09:48:28.331,2073
20/05/2016 09:48:28.335,2002
20/05/2016 09:48:28.339,1948
20/05/2016 09:48:28.343,1921
20/05/2016 09:48:28.347,1917
20/05/2016 09:48:28.351,1923
20/05/2016 09:48:28.355,1930
20/05/2016 09:48:28.359,1934
20/05/2016 09:48:28.363,1936
20/05/2016 09:48:28.367,1935
20/05/2016 09:48:28.371,1935
20/05/2016 09:48:28.375,1933
20/05/2016 09:48:28.379,1932
20/05/2016 09:48:28.383,1931
20/05/2016 09:48:28.387,1932
20/05/2016 09:48:28.391,1935
20/05/2016 09:48:28.395,1940
20/05/2016 09:48:28.399,1946
20/05/2016 09:48:28.403,1953
20/05/2016 09:48:28.407,1959
20/05/2016 09:48:28.411,1964
20/05/2016 09:48:28.415,1967
20/05/2016 09:48:28.419,1969
20/05/2016 09:48:28.423,1970
20/05/2016 09:48:28.427,1969
20/05/2016 09:48:28.431,1967
20/05/2016 09:48:28.435,1965
20/05/2016 09:48:28.439,1964
20/05/2016 09:48:28.443,1966
20/05/2016 09:48:28.447,1970
20/05/2016 09:48:28.451,1975
20/05/2016 09:48:28.455,1978
20/05/2016 09:48:28.459,1979
20/05/2016 09:48:28.463,1980
20/05/2016 09:48:28.467,1981
20/05/2016 09:48:28.471,1984
20/05/2016 09:48:28.475,1989
20/05/2016 09:48:28.479,1995
20/05/2016 09:48:28.483,1999
20/05/2016 09:48:28.487,2000
20/05/2016 09:48:28.491,1999
20/05/2016 09:48:28.495,1997
20/05/2016 09:48:28.499,1997
20/05/2016 09:48:28.503,1999
20/05/2016 09:48:28.507,2001
20/05/2016 09:48:28.511,2002
20/05/2016 09:48:28.515,2002
20/05/2016 09:48:28.519,2001
20/05/2016 09:48:28.523,2001
20/05/2016 09:48:28.527,2001
20/05/2016 09:48:28.531,2003
20/05/2016 09:48:28.535,2004
20/05/2016 09:48:28.539,2005
20/05/2016 09:48:28.543,2006
20/05/2016 09:48:28.547,2006
20/05/2016 09:48:28.551,2004
20/05/2016 09:48:28.555,2000
20/05/2016 09:48:28.559,1996
20/05/2016 09:48:28.563,1991
20/05/2016 09:48:28.567,1987
20/05/2016 09:48:28.571,1982
20/05/2016 09:48:28.575,1976
20/05/2016 09:48:28.579,1969
20/05/2016 09:48:28.583,1960
20/05/2016 09:48:28.587,1953
20/05/2016 09:48:28.591,1947
20/05/2016 09:48:28.595,1944
20/05/2016 09:48:28.599,1944
20/05/2016 09:48:28.603,1945
20/05/2016 09:48:28.607,1946
20/05/2016 09:48:28.611,1946
20/05/2016 09:48:28.615,1945
20/05/2016 09:48:28.619,1944
20/05/2016 09:48:28.623,1943
20/05/2016 09:48:28.627,1944
20/05/2016 09:48:28.631,1945
20/05/2016 09:48:28.635,1946
20/05/2016 09:48:28.639,1945
20/05/2016 09:48:28.643,1944
20/05/2016 09:48:28.647,1942
20/05/2016 09:48:28.651,1940
20/05/2016 09:48:28.655,1938
20/05/2016 09:48:28.659,1935
20/05/2016 09:48:28.663,1933
20/05/2016 09:48:28.667,1930
20/05/2016 09:48:28.671,1930
20/05/2016 09:48:28.675,1930
20/05/2016 09:48:28.679,1931
20/05/2016 09:48:28.683,1931
20/05/2016 09:48:28.687,1932
20/05/2016 09:48:28.691,1931
20/05/2016 09:48:28.695,1931
20/05/2016 09:48:28.699,1931
20/05/2016 09:48:28.703,1932
20/05/2016 09:48:28.707,1932
20/05/2016 09:48:28.711,1933
20/05/2016 09:48:28.715,1933
20/05/2016 09:48:28.719,1932
20/05/2016 09:48:28.723,1932
20/05/2016 09:48:28.727,1932
20/05/2016 09:48:28.731,1932
20/05/2016 09:48:28.735,1932
20/05/2016 09:48:28.739,1933
20/05/2016 09:48:28.743,1933
20/05/2016 09:48:28.747,1932
20/05/2016 09:48:28.751,1931
20/05/2016 09:48:28.755,1930
20/05/2016 09:48:28.759,1927
20/05/2016 09:48:28.763,1924
20/05/2016 09:48:28.767,1922
20/05/2016 09:48:28.771,1920
20/05/2016 09:48:28.775,1920
20/05/2016 09:48:28.779,1921
20/05/2016 09:48:28.783,1922
20/05/2016 09:48:28.787,1924
20/05/2016 09:48:28.791,1926
20/05/2016 09:48:28.795,1927
20/05/2016 09:48:28.799,1927
20/05/2016 09:48:28.803,1926
20/05/2016 09:48:28.807,1925
20/05/2016 09:48:28.811,1924
20/05/2016 09:48:28.815,1925
20/05/2016 09:48:28.819,1927
20/05/2016 09:48:28.823,1929
20/05/2016 09:48:28.827,1931
20/05/2016 09:48:28.831,1931
20/05/2016 09:48:28.835,1930
20/05/2016 09:48:28.839,1931
20/05/2016 09:48:28.843,1935
20/05/2016 09:48:28.847,1940
20/05/2016 09:48:28.851,1945
20/05/2016 09:48:28.855,1950
20/05/2016 09:48:28.859,1953
20/05/2016 09:48:28.863,1955
20/05/2016 09:48:28.867,1955
20/05/2016 09:48:28.871,1956
20/05/2016 09:48:28.875,1958
20/05/2016 09:48:28.879,1962
20/05/2016 09:48:28.883,1967
20/05/2016 09:48:28.887,1971
20/05/2016 09:48:28.891,1972
20/05/2016 09:48:28.895,1969
20/05/2016 09:48:28.899,1963
20/05/2016 09:48:28.903,1954
20/05/2016 09:48:28.907,1947
20/05/2016 09:48:28.911,1942
20/05/2016 09:48:28.915,1941
20/05/2016 09:48:28.919,1942
20/05/2016 09:48:28.923,1944
20/05/2016 09:48:28.927,1945
20/05/2016 09:48:28.931,1944
20/05/2016 09:48:28.935,1942
20/05/2016 09:48:28.939,1939
20/05/2016 09:48:28.943,1936
20/05/2016 09:48:28.947,1934
20/05/2016 09:48:28.951,1931
20/05/2016 09:48:28.955,1929
20/05/2016 09:48:28.959,1927
20/05/2016 09:48:28.963,1926
20/05/2016 09:48:28.967,1926
20/05/2016 09:48:28.971,1928
20/05/2016 09:48:28.975,1930
20/05/2016 09:48:28.979,1931
20/05/2016 09:48:28.983,1929
20/05/2016 09:48:28.987,1922
20/05/2016 09:48:28.991,1914
20/05/2016 09:48:28.995,1909
20/05/2016 09:48:28.999,1912
20/05/2016 09:48:29.003,1935
20/05/2016 09:48:29.007,1984
20/05/2016 09:48:29.011,2055
20/05/2016 09:48:29.015,2133
20/05/2016 09:48:29.019,2191
20/05/2016 09:48:29.023,2204
20/05/2016 09:48:29.027,2164
20/05/2016 09:48:29.031,2088
20/05/2016 09:48:29.035,2004
20/05/2016 09:48:29.039,1940
20/05/2016 09:48:29.043,1909
20/05/2016 09:48:29.047,1908
20/05/2016 09:48:29.051,1923
20/05/2016 09:48:29.055,1940
20/05/2016 09:48:29.059,1953
20/05/2016 09:48:29.063,1961
20/05/2016 09:48:29.067,1963
20/05/2016 09:48:29.071,1962
20/05/2016 09:48:29.075,1958
20/05/2016 09:48:29.079,1954
20/05/2016 09:48:29.083,1952
20/05/2016 09:48:29.087,1953
20/05/2016 09:48:29.091,1956
20/05/2016 09:48:29.095,1958
20/05/2016 09:48:29.099,1960
20/05/2016 09:48:29.103,1962
20/05/2016 09:48:29.107,1963
20/05/2016 09:48:29.111,1964
20/05/2016 09:48:29.115,1965
20/05/2016 09:48:29.119,1966
20/05/2016 09:48:29.123,1968
20/05/2016 09:48:29.127,1972
20/05/2016 09:48:29.131,1977
20/05/2016 09:48:29.135,1979
20/05/2016 09:48:29.139,1980
20/05/2016 09:48:29.143,1980
20/05/2016 09:48:29.147,1980
20/05/2016 09:48:29.151,1984
20/05/2016 09:48:29.155,1989
20/05/2016 09:48:29.159,1993
20/05/2016 09:48:29.163,1996
20/05/2016 09:48:29.167,1996
20/05/2016 09:48:29.171,1996
20/05/2016 09:48:29.175,1997
20/05/2016 09:48:29.179,2001
20/05/2016 09:48:29.183,2005
20/05/2016 09:48:29.187,2010
20/05/2016 09:48:29.191,2013
20/05/2016 09:48:29.195,2016
20/05/2016 09:48:29.199,2019
20/05/2016 09:48:29.203,2024
20/05/2016 09:48:29.207,2028
20/05/2016 09:48:29.211,2031
20/05/2016 09:48:29.215,2032
20/05/2016 09:48:29.219,2031
20/05/2016 09:48:29.223,2030
20/05/2016 09:48:29.227,2030
20/05/2016 09:48:29.231,2033
20/05/2016 09:48:29.235,2037
20/05/2016 09:48:29.239,2041
20/05/2016 09:48:29.243,2044
20/05/2016 09:48:29.247,2045
20/05/2016 09:48:29.251,2043
20/05/2016 09:48:29.255,2039
20/05/2016 09:48:29.259,2034
20/05/2016 09:48:29.263,2029
20/05/2016 09:48:29.267,2025
20/05/2016 09:48:29.271,2021
20/05/2016 09:48:29.275,2017
20/05/2016 09:48:29.279,2012
20/05/2016 09:48:29.283,2006
20/05/2016 09:48:29.287,2001
20/05/2016 09:48:29.291,1997
20/05/2016 09:48:29.295,1997
20/05/2016 09:48:29.299,1998
20/05/2016 09:48:29.303,1999
20/05/2016 09:48:29.307,1999
20/05/2016 09:48:29.311,1998
20/05/2016 09:48:29.315,1998
20/05/2016 09:48:29.319,1998
20/05/2016 09:48:29.323,1999
20/05/2016 09:48:29.327,2000
20/05/2016 09:48:29.331,2000
20/05/2016 09:48:29.335,1998
20/05/2016 09:48:29.339,1995
20/05/2016 09:48:29.343,1993
20/05/2016 09:48:29.347,1992
20/05/2016 09:48:29.351,1991
20/05/2016 09:48:29.355,1990
20/05/2016 09:48:29.359,1990
20/05/2016 09:48:29.363,1990
20/05/2016 09:48:29.367,1992
20/05/2016 09:48:29.371,1995
20/05/2016 09:48:29.375,1997
20/05/2016 09:48:29.379,1998
20/05/2016 09:48:29.383,1997
20/05/2016 09:48:29.387,1995
20/05/2016 09:48:29.391,1993
20/05/2016 09:48:29.395,1991
20/05/2016 09:48:29.399,1991
20/05/2016 09:48:29.403,1993
20/05/2016 09:48:29.407,1996
20/05/2016 09:48:29.411,1997
20/05/2016 09:48:29.415,1996
20/05/2016 09:48:29.419,1993
20/05/2016 09:48:29.423,1989
20/05/2016 09:48:29.427,1987
20/05/2016 09:48:29.431,1987
20/05/2016 09:48:29.435,1989
20/05/2016 09:48:29.439,1991
20/05/2016 09:48:29.443,1992
20/05/2016 09:48:29.447,1991
20/05/2016 09:48:29.451,1989
20/05/2016 09:48:29.455,1989
20/05/2016 09:48:29.459,1989
20/05/2016 09:48:29.463,1989
20/05/2016 09:48:29.467,1990
20/05/2016 09:48:29.471,1990
20/05/2016 09:48:29.475,1991
20/05/2016 09:48:29.479,1991
20/05/2016 09:48:29.483,1991
20/05/2016 09:48:29.487,1992
20/05/2016 09:48:29.491,1991
20/05/2016 09:48:29.495,1990
20/05/2016 09:48:29.499,1989
20/05/2016 09:48:29.503,1987
20/05/2016 09:48:29.507,1986
20/05/2016 09:48:29.511,1985
20/05/2016 09:48:29.515,1984
20/05/2016 09:48:29.519,1983
20/05/2016 09:48:29.523,1984
20/05/2016 09:48:29.527,1984
20/05/2016 09:48:29.531,1984
20/05/2016 09:48:29.535,1983
20/05/2016 09:48:29.539,1980
20/05/2016 09:48:29.543,1977
20/05/2016 09:48:29.547,1975
20/05/2016 09:48:29.551,1976
20/05/2016 09:48:29.555,1980
20/05/2016 09:48:29.559,1984
20/05/2016 09:48:29.563,1987
20/05/2016 09:48:29.567,1988
20/05/2016 09:48:29.571,1987
20/05/2016 09:48:29.575,1986
20/05/2016 09:48:29.579,1986
20/05/2016 09:48:29.583,1988
20/05/2016 09:48:29.587,1991
20/05/2016 09:48:29.591,1995
20/05/2016 09:48:29.595,1996
20/05/2016 09:48:29.599,1997
20/05/2016 09:48:29.603,1995
20/05/2016 09:48:29.607,1993
20/05/2016 09:48:29.611,1990
20/05/2016 09:48:29.615,1987
20/05/2016 09:48:29.619,1985
20/05/2016 09:48:29.623,1985
20/05/2016 09:48:29.627,1987
20/05/2016 09:48:29.631,1989
20/05/2016 09:48:29.635,1990
20/05/2016 09:48:29.639,1987
20/05/2016 09:48:29.643,1981
20/05/2016 09:48:29.647,1974
20/05/2016 09:48:29.651,1968
20/05/2016 09:48:29.655,1966
20/05/2016 09:48:29.659,1967
20/05/2016 09:48:29.663,1968
20/05/2016 09:48:29.667,1968
20/05/2016 09:48:29.671,1966
20/05/2016 09:48:29.675,1963
20/05/2016 09:48:29.679,1960
20/05/2016 09:48:29.683,1955
20/05/2016 09:48:29.687,1948
20/05/2016 09:48:29.691,1941
20/05/2016 09:48:29.695,1935
20/05/2016 09:48:29.699,1937
20/05/2016 09:48:29.703,1959
20/05/2016 09:48:29.707,2006
20/05/2016 09:48:29.711,2076
20/05/2016 09:48:29.715,2152
20/05/2016 09:48:29.719,2208
20/05/2016 09:48:29.723,2223
20/05/2016 09:48:29.727,2188
20/05/2016 09:48:29.731,2118
20/05/2016 09:48:29.735,2040
20/05/2016 09:48:29.739,1976
20/05/2016 09:48:29.743,1941
20/05/2016 09:48:29.747,1933
20/05/2016 09:48:29.751,1938
20/05/2016 09:48:29.755,1946
20/05/2016 09:48:29.759,1949
20/05/2016 09:48:29.763,1949
20/05/2016 09:48:29.767,1947
20/05/2016 09:48:29.771,1945
20/05/2016 09:48:29.775,1942
20/05/2016 09:48:29.779,1940
20/05/2016 09:48:29.783,1937
20/05/2016 09:48:29.787,1935
20/05/2016 09:48:29.791,1934
20/05/2016 09:48:29.795,1936
20/05/2016 09:48:29.799,1943
20/05/2016 09:48:29.803,1953
20/05/2016 09:48:29.807,1961
20/05/2016 09:48:29.811,1967
20/05/2016 09:48:29.815,1967
20/05/2016 09:48:29.819,1964
20/05/2016 09:48:29.823,1962
20/05/2016 09:48:29.827,1963
20/05/2016 09:48:29.831,1967
20/05/2016 09:48:29.835,1973
20/05/2016 09:48:29.839,1976
20/05/2016 09:48:29.843,1977
20/05/2016 09:48:29.847,1977
20/05/2016 09:48:29.851,1977
20/05/2016 09:48:29.855,1978
20/05/2016 09:48:29.859,1977
20/05/2016 09:48:29.863,1974
20/05/2016 09:48:29.867,1966
20/05/2016 09:48:29.871,1957
20/05/2016 09:48:29.875,1947
20/05/2016 09:48:29.879,1939
20/05/2016 09:48:29.883,1932
20/05/2016 09:48:29.887,1926
20/05/2016 09:48:29.891,1921
20/05/2016 09:48:29.895,1920
20/05/2016 09:48:29.899,1926
20/05/2016 09:48:29.903,1941
20/05/2016 09:48:29.907,1962
20/05/2016 09:48:29.911,1984
20/05/2016 09:48:29.915,1999
20/05/2016 09:48:29.919,2003
20/05/2016 09:48:29.923,1995
20/05/2016 09:48:29.927,1982
20/05/2016 09:48:29.931,1970
20/05/2016 09:48:29.935,1964
20/05/2016 09:48:29.939,1965
20/05/2016 09:48:29.943,1969
20/05/2016 09:48:29.947,1970
20/05/2016 09:48:29.951,1964
20/05/2016 09:48:29.955,1951
20/05/2016 09:48:29.959,1931
20/05/2016 09:48:29.963,1910
20/05/2016 09:48:29.967,1892
20/05/2016 09:48:29.971,1877
20/05/2016 09:48:29.975,1864
20/05/2016 09:48:29.979,1846
20/05/2016 09:48:29.983,1821
20/05/2016 09:48:29.987,1792
20/05/2016 09:48:29.991,1764
20/05/2016 09:48:29.995,1747
20/05/2016 09:48:29.999,1741
20/05/2016 09:48:30.003,1745
20/05/2016 09:48:30.007,1752
20/05/2016 09:48:30.011,1755
20/05/2016 09:48:30.015,1752
20/05/2016 09:48:30.019,1747
20/05/2016 09:48:30.023,1744
20/05/2016 09:48:30.027,1747
20/05/2016 09:48:30.031,1754
20/05/2016 09:48:30.035,1763
20/05/2016 09:48:30.039,1772
20/05/2016 09:48:30.043,1779
20/05/2016 09:48:30.047,1783
20/05/2016 09:48:30.051,1786
20/05/2016 09:48:30.055,1789
20/05/2016 09:48:30.059,1793
20/05/2016 09:48:30.063,1799
20/05/2016 09:48:30.067,1806
20/05/2016 09:48:30.071,1812
20/05/2016 09:48:30.075,1818
20/05/2016 09:48:30.079,1822
20/05/2016 09:48:30.083,1826
20/05/2016 09:48:30.087,1831
20/05/2016 09:48:30.091,1837
20/05/2016 09:48:30.095,1844
20/05/2016 09:48:30.099,1850
20/05/2016 09:48:30.103,1853
20/05/2016 09:48:30.107,1853
20/05/2016 09:48:30.111,1850
20/05/2016 09:48:30.115,1847
20/05/2016 09:48:30.119,1844
20/05/2016 09:48:30.123,1843
20/05/2016 09:48:30.127,1845
20/05/2016 09:48:30.131,1849
20/05/2016 09:48:30.135,1853
20/05/2016 09:48:30.139,1856
20/05/2016 09:48:30.143,1857
20/05/2016 09:48:30.147,1856
20/05/2016 09:48:30.151,1856
20/05/2016 09:48:30.155,1856
20/05/2016 09:48:30.159,1858
20/05/2016 09:48:30.163,1863
20/05/2016 09:48:30.167,1868
20/05/2016 09:48:30.171,1872
20/05/2016 09:48:30.175,1874
20/05/2016 09:48:30.179,1874
20/05/2016 09:48:30.183,1872
20/05/2016 09:48:30.187,1868
20/05/2016 09:48:30.191,1865
20/05/2016 09:48:30.195,1862
20/05/2016 09:48:30.199,1861
20/05/2016 09:48:30.203,1861
20/05/2016 09:48:30.207,1861
20/05/2016 09:48:30.211,1861
20/05/2016 09:48:30.215,1861
20/05/2016 09:48:30.219,1863
20/05/2016 09:48:30.223,1868
20/05/2016 09:48:30.227,1875
20/05/2016 09:48:30.231,1882
20/05/2016 09:48:30.235,1891
20/05/2016 09:48:30.239,1900
20/05/2016 09:48:30.243,1913
20/05/2016 09:48:30.247,1931
20/05/2016 09:48:30.251,1949
20/05/2016 09:48:30.255,1959
20/05/2016 09:48:30.259,1955
20/05/2016 09:48:30.263,1940
20/05/2016 09:48:30.267,1923
20/05/2016 09:48:30.271,1910
20/05/2016 09:48:30.275,1907
20/05/2016 09:48:30.279,1907
20/05/2016 09:48:30.283,1904
20/05/2016 09:48:30.287,1892
20/05/2016 09:48:30.291,1875
20/05/2016 09:48:30.295,1857
20/05/2016 09:48:30.299,1845
20/05/2016 09:48:30.303,1838
20/05/2016 09:48:30.307,1834
20/05/2016 09:48:30.311,1828
20/05/2016 09:48:30.315,1819
20/05/2016 09:48:30.319,1811
20/05/2016 09:48:30.323,1808
20/05/2016 09:48:30.327,1811
20/05/2016 09:48:30.331,1819
20/05/2016 09:48:30.335,1832
20/05/2016 09:48:30.339,1845
20/05/2016 09:48:30.343,1857
20/05/2016 09:48:30.347,1869
20/05/2016 09:48:30.351,1879
20/05/2016 09:48:30.355,1886
20/05/2016 09:48:30.359,1889
20/05/2016 09:48:30.363,1887
20/05/2016 09:48:30.367,1884
20/05/2016 09:48:30.371,1883
20/05/2016 09:48:30.375,1889
20/05/2016 09:48:30.379,1903
20/05/2016 09:48:30.383,1920
20/05/2016 09:48:30.387,1936
20/05/2016 09:48:30.391,1946
20/05/2016 09:48:30.395,1946
20/05/2016 09:48:30.399,1939
20/05/2016 09:48:30.403,1926
20/05/2016 09:48:30.407,1914
20/05/2016 09:48:30.411,1910
20/05/2016 09:48:30.415,1930
20/05/2016 09:48:30.419,1984
20/05/2016 09:48:30.423,2070
20/05/2016 09:48:30.427,2169
20/05/2016 09:48:30.431,2245
20/05/2016 09:48:30.435,2270
20/05/2016 09:48:30.439,2234
20/05/2016 09:48:30.443,2155
20/05/2016 09:48:30.447,2066
20/05/2016 09:48:30.451,2001
20/05/2016 09:48:30.455,1968
20/05/2016 09:48:30.459,1965
20/05/2016 09:48:30.463,1974
20/05/2016 09:48:30.467,1982
20/05/2016 09:48:30.471,1986
20/05/2016 09:48:30.475,1988
20/05/2016 09:48:30.479,1990
20/05/2016 09:48:30.483,1994
20/05/2016 09:48:30.487,1998
20/05/2016 09:48:30.491,2001
20/05/2016 09:48:30.495,2002
20/05/2016 09:48:30.499,2003
20/05/2016 09:48:30.503,2004
20/05/2016 09:48:30.507,2008
20/05/2016 09:48:30.511,2016
20/05/2016 09:48:30.515,2027
20/05/2016 09:48:30.519,2039
20/05/2016 09:48:30.523,2046
20/05/2016 09:48:30.527,2048
20/05/2016 09:48:30.531,2048
20/05/2016 09:48:30.535,2045
20/05/2016 09:48:30.539,2043
20/05/2016 09:48:30.543,2043
20/05/2016 09:48:30.547,2044
20/05/2016 09:48:30.551,2044
20/05/2016 09:48:30.555,2044
20/05/2016 09:48:30.559,2043
20/05/2016 09:48:30.563,2042
20/05/2016 09:48:30.567,2041
20/05/2016 09:48:30.571,2037
20/05/2016 09:48:30.575,2030
20/05/2016 09:48:30.579,2021
20/05/2016 09:48:30.583,2011
20/05/2016 09:48:30.587,2004
20/05/2016 09:48:30.591,2000
20/05/2016 09:48:30.595,1999
20/05/2016 09:48:30.599,2001
20/05/2016 09:48:30.603,2003
20/05/2016 09:48:30.607,2006
20/05/2016 09:48:30.611,2007
20/05/2016 09:48:30.615,2006
20/05/2016 09:48:30.619,2004
20/05/2016 09:48:30.623,2001
20/05/2016 09:48:30.627,1999
20/05/2016 09:48:30.631,1999
20/05/2016 09:48:30.635,2001
20/05/2016 09:48:30.639,2004
20/05/2016 09:48:30.643,2007
20/05/2016 09:48:30.647,2012
20/05/2016 09:48:30.651,2016
20/05/2016 09:48:30.655,2022
20/05/2016 09:48:30.659,2028
20/05/2016 09:48:30.663,2034
20/05/2016 09:48:30.667,2039
20/05/2016 09:48:30.671,2041
20/05/2016 09:48:30.675,2040
20/05/2016 09:48:30.679,2037
20/05/2016 09:48:30.683,2033
20/05/2016 09:48:30.687,2030
20/05/2016 09:48:30.691,2029
20/05/2016 09:48:30.695,2028
20/05/2016 09:48:30.699,2028
20/05/2016 09:48:30.703,2029
20/05/2016 09:48:30.707,2031
20/05/2016 09:48:30.711,2033
20/05/2016 09:48:30.715,2036
20/05/2016 09:48:30.719,2038
20/05/2016 09:48:30.723,2039
20/05/2016 09:48:30.727,2041
20/05/2016 09:48:30.731,2045
20/05/2016 09:48:30.735,2048
20/05/2016 09:48:30.739,2051
20/05/2016 09:48:30.743,2051
20/05/2016 09:48:30.747,2048
20/05/2016 09:48:30.751,2045
20/05/2016 09:48:30.755,2044
20/05/2016 09:48:30.759,2044
20/05/2016 09:48:30.763,2044
20/05/2016 09:48:30.767,2039
20/05/2016 09:48:30.771,2025
20/05/2016 09:48:30.775,2005
20/05/2016 09:48:30.779,1983
20/05/2016 09:48:30.783,1967
20/05/2016 09:48:30.787,1959
20/05/2016 09:48:30.791,1960
20/05/2016 09:48:30.795,1965
20/05/2016 09:48:30.799,1971
20/05/2016 09:48:30.803,1975
20/05/2016 09:48:30.807,1976
20/05/2016 09:48:30.811,1975
20/05/2016 09:48:30.815,1971
20/05/2016 09:48:30.819,1966
20/05/2016 09:48:30.823,1962
20/05/2016 09:48:30.827,1961
20/05/2016 09:48:30.831,1961
20/05/2016 09:48:30.835,1963
20/05/2016 09:48:30.839,1965
20/05/2016 09:48:30.843,1966
20/05/2016 09:48:30.847,1966
20/05/2016 09:48:30.851,1968
20/05/2016 09:48:30.855,1971
20/05/2016 09:48:30.859,1975
20/05/2016 09:48:30.863,1981
20/05/2016 09:48:30.867,1985
20/05/2016 09:48:30.871,1987
20/05/2016 09:48:30.875,1987
20/05/2016 09:48:30.879,1986
20/05/2016 09:48:30.883,1985
20/05/2016 09:48:30.887,1985
20/05/2016 09:48:30.891,1985
20/05/2016 09:48:30.895,1984
20/05/2016 09:48:30.899,1983
20/05/2016 09:48:30.903,1983
20/05/2016 09:48:30.907,1984
20/05/2016 09:48:30.911,1986
20/05/2016 09:48:30.915,1989
20/05/2016 09:48:30.919,1991
20/05/2016 09:48:30.923,1993
20/05/2016 09:48:30.927,1997
20/05/2016 09:48:30.931,2001
20/05/2016 09:48:30.935,2005
20/05/2016 09:48:30.939,2006
20/05/2016 09:48:30.943,2006
20/05/2016 09:48:30.947,2004
20/05/2016 09:48:30.951,2003
20/05/2016 09:48:30.955,2002
20/05/2016 09:48:30.959,2002
20/05/2016 09:48:30.963,2003
20/05/2016 09:48:30.967,2005
20/05/2016 09:48:30.971,2006
20/05/2016 09:48:30.975,2007
20/05/2016 09:48:30.979,2008
20/05/2016 09:48:30.983,2011
20/05/2016 09:48:30.987,2017
20/05/2016 09:48:30.991,2024
20/05/2016 09:48:30.995,2032
20/05/2016 09:48:30.999,2039
20/05/2016 09:48:31.003,2044
20/05/2016 09:48:31.007,2048
20/05/2016 09:48:31.011,2050
20/05/2016 09:48:31.015,2055
20/05/2016 09:48:31.019,2059
20/05/2016 09:48:31.023,2062
20/05/2016 09:48:31.027,2066
20/05/2016 09:48:31.031,2070
20/05/2016 09:48:31.035,2077
20/05/2016 09:48:31.039,2086
20/05/2016 09:48:31.043,2097
20/05/2016 09:48:31.047,2108
20/05/2016 09:48:31.051,2117
20/05/2016 09:48:31.055,2125
20/05/2016 09:48:31.059,2132
20/05/2016 09:48:31.063,2139
20/05/2016 09:48:31.067,2144
20/05/2016 09:48:31.071,2147
20/05/2016 09:48:31.075,2151
20/05/2016 09:48:31.079,2156
20/05/2016 09:48:31.083,2164
20/05/2016 09:48:31.087,2173
20/05/2016 09:48:31.091,2179
20/05/2016 09:48:31.095,2181
20/05/2016 09:48:31.099,2175
20/05/2016 09:48:31.103,2169
20/05/2016 09:48:31.107,2167
20/05/2016 09:48:31.111,2181
20/05/2016 09:48:31.115,2222
20/05/2016 09:48:31.119,2290
20/05/2016 09:48:31.123,2370
20/05/2016 09:48:31.127,2431
20/05/2016 09:48:31.131,2442
20/05/2016 09:48:31.135,2387
20/05/2016 09:48:31.139,2275
20/05/2016 09:48:31.143,2142
20/05/2016 09:48:31.147,2026
20/05/2016 09:48:31.151,1947
20/05/2016 09:48:31.155,1905
20/05/2016 09:48:31.159,1879
20/05/2016 09:48:31.163,1847
20/05/2016 09:48:31.167,1797
20/05/2016 09:48:31.171,1734
20/05/2016 09:48:31.175,1668
20/05/2016 09:48:31.179,1614
20/05/2016 09:48:31.183,1580
20/05/2016 09:48:31.187,1566
20/05/2016 09:48:31.191,1568
20/05/2016 09:48:31.195,1577
20/05/2016 09:48:31.199,1589
20/05/2016 09:48:31.203,1602
20/05/2016 09:48:31.207,1621
20/05/2016 09:48:31.211,1650
20/05/2016 09:48:31.215,1687
20/05/2016 09:48:31.219,1723
20/05/2016 09:48:31.223,1749
20/05/2016 09:48:31.227,1757
20/05/2016 09:48:31.231,1749
20/05/2016 09:48:31.235,1730
20/05/2016 09:48:31.239,1709
20/05/2016 09:48:31.243,1691
20/05/2016 09:48:31.247,1680
20/05/2016 09:48:31.251,1672
20/05/2016 09:48:31.255,1667
20/05/2016 09:48:31.259,1663
20/05/2016 09:48:31.263,1662
20/05/2016 09:48:31.267,1665
20/05/2016 09:48:31.271,1669
20/05/2016 09:48:31.275,1673
20/05/2016 09:48:31.279,1675
20/05/2016 09:48:31.283,1677
20/05/2016 09:48:31.287,1679
20/05/2016 09:48:31.291,1684
20/05/2016 09:48:31.295,1692
20/05/2016 09:48:31.299,1699
20/05/2016 09:48:31.303,1701
20/05/2016 09:48:31.307,1697
20/05/2016 09:48:31.311,1689
20/05/2016 09:48:31.315,1681
20/05/2016 09:48:31.319,1677
20/05/2016 09:48:31.323,1680
20/05/2016 09:48:31.327,1687
20/05/2016 09:48:31.331,1694
20/05/2016 09:48:31.335,1696
20/05/2016 09:48:31.339,1696
20/05/2016 09:48:31.343,1694
20/05/2016 09:48:31.347,1694
20/05/2016 09:48:31.351,1693
20/05/2016 09:48:31.355,1691
20/05/2016 09:48:31.359,1686
20/05/2016 09:48:31.363,1678
20/05/2016 09:48:31.367,1668
20/05/2016 09:48:31.371,1660
20/05/2016 09:48:31.375,1652
20/05/2016 09:48:31.379,1643
20/05/2016 09:48:31.383,1634
20/05/2016 09:48:31.387,1625
20/05/2016 09:48:31.391,1617
20/05/2016 09:48:31.395,1612
20/05/2016 09:48:31.399,1607
20/05/2016 09:48:31.403,1602
20/05/2016 09:48:31.407,1599
20/05/2016 09:48:31.411,1598
20/05/2016 09:48:31.415,1601
20/05/2016 09:48:31.419,1606
20/05/2016 09:48:31.423,1612
20/05/2016 09:48:31.427,1618
20/05/2016 09:48:31.431,1622
20/05/2016 09:48:31.435,1624
20/05/2016 09:48:31.439,1626
20/05/2016 09:48:31.443,1627
20/05/2016 09:48:31.447,1629
20/05/2016 09:48:31.451,1631
20/05/2016 09:48:31.455,1633
20/05/2016 09:48:31.459,1637
20/05/2016 09:48:31.463,1641
20/05/2016 09:48:31.467,1646
20/05/2016 09:48:31.471,1650
20/05/2016 09:48:31.475,1653
20/05/2016 09:48:31.479,1656
20/05/2016 09:48:31.483,1659
20/05/2016 09:48:31.487,1662
20/05/2016 09:48:31.491,1663
20/05/2016 09:48:31.495,1662
20/05/2016 09:48:31.499,1659
20/05/2016 09:48:31.503,1655
20/05/2016 09:48:31.507,1654
20/05/2016 09:48:31.511,1657
20/05/2016 09:48:31.515,1664
20/05/2016 09:48:31.519,1672
20/05/2016 09:48:31.523,1680
20/05/2016 09:48:31.527,1686
20/05/2016 09:48:31.531,1691
20/05/2016 09:48:31.535,1694
20/05/2016 09:48:31.539,1696
20/05/2016 09:48:31.543,1697
20/05/2016 09:48:31.547,1699
20/05/2016 09:48:31.551,1702
20/05/2016 09:48:31.555,1707
20/05/2016 09:48:31.559,1713
20/05/2016 09:48:31.563,1719
20/05/2016 09:48:31.567,1724
20/05/2016 09:48:31.571,1728
20/05/2016 09:48:31.575,1732
20/05/2016 09:48:31.579,1734
20/05/2016 09:48:31.583,1735
20/05/2016 09:48:31.587,1735
20/05/2016 09:48:31.591,1736
20/05/2016 09:48:31.595,1738
20/05/2016 09:48:31.599,1741
20/05/2016 09:48:31.603,1745
20/05/2016 09:48:31.607,1748
20/05/2016 09:48:31.611,1749
20/05/2016 09:48:31.615,1750
20/05/2016 09:48:31.619,1750
20/05/2016 09:48:31.623,1751
20/05/2016 09:48:31.627,1752
20/05/2016 09:48:31.631,1755
20/05/2016 09:48:31.635,1759
20/05/2016 09:48:31.639,1765
20/05/2016 09:48:31.643,1771
20/05/2016 09:48:31.647,1776
20/05/2016 09:48:31.651,1778
20/05/2016 09:48:31.655,1776
20/05/2016 09:48:31.659,1773
20/05/2016 09:48:31.663,1772
20/05/2016 09:48:31.667,1774
20/05/2016 09:48:31.671,1777
20/05/2016 09:48:31.675,1782
20/05/2016 09:48:31.679,1786
20/05/2016 09:48:31.683,1789
20/05/2016 09:48:31.687,1793
20/05/2016 09:48:31.691,1798
20/05/2016 09:48:31.695,1803
20/05/2016 09:48:31.699,1807
20/05/2016 09:48:31.703,1810
20/05/2016 09:48:31.707,1811
20/05/2016 09:48:31.711,1812
20/05/2016 09:48:31.715,1813
20/05/2016 09:48:31.719,1813
20/05/2016 09:48:31.723,1812
20/05/2016 09:48:31.727,1812
20/05/2016 09:48:31.731,1812
20/05/2016 09:48:31.735,1815
20/05/2016 09:48:31.739,1820
20/05/2016 09:48:31.743,1825
20/05/2016 09:48:31.747,1830
20/05/2016 09:48:31.751,1834
20/05/2016 09:48:31.755,1836
20/05/2016 09:48:31.759,1838
20/05/2016 09:48:31.763,1841
20/05/2016 09:48:31.767,1845
20/05/2016 09:48:31.771,1850
20/05/2016 09:48:31.775,1854
20/05/2016 09:48:31.779,1857
20/05/2016 09:48:31.783,1860
20/05/2016 09:48:31.787,1861
20/05/2016 09:48:31.791,1858
20/05/2016 09:48:31.795,1851
20/05/2016 09:48:31.799,1844
20/05/2016 09:48:31.803,1845
20/05/2016 09:48:31.807,1868
20/05/2016 09:48:31.811,1925
20/05/2016 09:48:31.815,2013
20/05/2016 09:48:31.819,2111
20/05/2016 09:48:31.823,2186
20/05/2016 09:48:31.827,2205
20/05/2016 09:48:31.831,2160
20/05/2016 09:48:31.835,2069
20/05/2016 09:48:31.839,1969
20/05/2016 09:48:31.843,1897
20/05/2016 09:48:31.847,1867
20/05/2016 09:48:31.851,1873
20/05/2016 09:48:31.855,1895
20/05/2016 09:48:31.859,1914
20/05/2016 09:48:31.863,1923
20/05/2016 09:48:31.867,1926
20/05/2016 09:48:31.871,1926
20/05/2016 09:48:31.875,1927
20/05/2016 09:48:31.879,1928
20/05/2016 09:48:31.883,1928
20/05/2016 09:48:31.887,1928
20/05/2016 09:48:31.891,1930
20/05/2016 09:48:31.895,1935
20/05/2016 09:48:31.899,1943
20/05/2016 09:48:31.903,1953
20/05/2016 09:48:31.907,1962
20/05/2016 09:48:31.911,1968
20/05/2016 09:48:31.915,1969
20/05/2016 09:48:31.919,1967
20/05/2016 09:48:31.923,1965
20/05/2016 09:48:31.927,1966
20/05/2016 09:48:31.931,1973
20/05/2016 09:48:31.935,1984
20/05/2016 09:48:31.939,1991
20/05/2016 09:48:31.943,1985
20/05/2016 09:48:31.947,1955
20/05/2016 09:48:31.951,1903
20/05/2016 09:48:31.955,1842
20/05/2016 09:48:31.959,1787
20/05/2016 09:48:31.963,1753
20/05/2016 09:48:31.967,1744
20/05/2016 09:48:31.971,1759
20/05/2016 09:48:31.975,1797
20/05/2016 09:48:31.979,1855
20/05/2016 09:48:31.983,1934
20/05/2016 09:48:31.987,2029
20/05/2016 09:48:31.991,2124
20/05/2016 09:48:31.995,2203
20/05/2016 09:48:31.999,2258
20/05/2016 09:48:32.003,2289
20/05/2016 09:48:32.007,2306
20/05/2016 09:48:32.011,2323
20/05/2016 09:48:32.015,2343
20/05/2016 09:48:32.019,2365
20/05/2016 09:48:32.023,2386
20/05/2016 09:48:32.027,2402
20/05/2016 09:48:32.031,2416
20/05/2016 09:48:32.035,2430
20/05/2016 09:48:32.039,2447
20/05/2016 09:48:32.043,2466
20/05/2016 09:48:32.047,2483
20/05/2016 09:48:32.051,2496
20/05/2016 09:48:32.055,2505
20/05/2016 09:48:32.059,2510
20/05/2016 09:48:32.063,2516
20/05/2016 09:48:32.067,2521
20/05/2016 09:48:32.071,2525
20/05/2016 09:48:32.075,2527
20/05/2016 09:48:32.079,2528
20/05/2016 09:48:32.083,2531
20/05/2016 09:48:32.087,2537
20/05/2016 09:48:32.091,2545
20/05/2016 09:48:32.095,2553
20/05/2016 09:48:32.099,2560
20/05/2016 09:48:32.103,2565
20/05/2016 09:48:32.107,2572
20/05/2016 09:48:32.111,2581
20/05/2016 09:48:32.115,2590
20/05/2016 09:48:32.119,2597
20/05/2016 09:48:32.123,2599
20/05/2016 09:48:32.127,2597
20/05/2016 09:48:32.131,2593
20/05/2016 09:48:32.135,2590
20/05/2016 09:48:32.139,2590
20/05/2016 09:48:32.143,2590
20/05/2016 09:48:32.147,2587
20/05/2016 09:48:32.151,2580
20/05/2016 09:48:32.155,2568
20/05/2016 09:48:32.159,2555
20/05/2016 09:48:32.163,2542
20/05/2016 09:48:32.167,2530
20/05/2016 09:48:32.171,2521
20/05/2016 09:48:32.175,2514
20/05/2016 09:48:32.179,2510
20/05/2016 09:48:32.183,2511
20/05/2016 09:48:32.187,2517
20/05/2016 09:48:32.191,2529
20/05/2016 09:48:32.195,2545
20/05/2016 09:48:32.199,2559
20/05/2016 09:48:32.203,2569
20/05/2016 09:48:32.207,2571
20/05/2016 09:48:32.211,2568
20/05/2016 09:48:32.215,2563
20/05/2016 09:48:32.219,2559
20/05/2016 09:48:32.223,2557
20/05/2016 09:48:32.227,2554
20/05/2016 09:48:32.231,2548
20/05/2016 09:48:32.235,2541
20/05/2016 09:48:32.239,2535
20/05/2016 09:48:32.243,2535
20/05/2016 09:48:32.247,2538
20/05/2016 09:48:32.251,2541
20/05/2016 09:48:32.255,2542
20/05/2016 09:48:32.259,2539
20/05/2016 09:48:32.263,2536
20/05/2016 09:48:32.267,2535
20/05/2016 09:48:32.271,2535
20/05/2016 09:48:32.275,2536
20/05/2016 09:48:32.279,2536
20/05/2016 09:48:32.283,2535
20/05/2016 09:48:32.287,2533
20/05/2016 09:48:32.291,2532
20/05/2016 09:48:32.295,2532
20/05/2016 09:48:32.299,2532
20/05/2016 09:48:32.303,2531
20/05/2016 09:48:32.307,2528
20/05/2016 09:48:32.311,2525
20/05/2016 09:48:32.315,2521
20/05/2016 09:48:32.319,2517
20/05/2016 09:48:32.323,2514
20/05/2016 09:48:32.327,2510
20/05/2016 09:48:32.331,2503
20/05/2016 09:48:32.335,2496
20/05/2016 09:48:32.339,2487
20/05/2016 09:48:32.343,2479
20/05/2016 09:48:32.347,2472
20/05/2016 09:48:32.351,2466
20/05/2016 09:48:32.355,2461
20/05/2016 09:48:32.359,2456
20/05/2016 09:48:32.363,2452
20/05/2016 09:48:32.367,2450
20/05/2016 09:48:32.371,2449
20/05/2016 09:48:32.375,2446
20/05/2016 09:48:32.379,2442
20/05/2016 09:48:32.383,2436
20/05/2016 09:48:32.387,2429
20/05/2016 09:48:32.391,2423
20/05/2016 09:48:32.395,2418
20/05/2016 09:48:32.399,2413
20/05/2016 09:48:32.403,2409
20/05/2016 09:48:32.407,2404
20/05/2016 09:48:32.411,2400
20/05/2016 09:48:32.415,2397
20/05/2016 09:48:32.419,2395
20/05/2016 09:48:32.423,2391
20/05/2016 09:48:32.427,2384
20/05/2016 09:48:32.431,2375
20/05/2016 09:48:32.435,2366
20/05/2016 09:48:32.439,2361
20/05/2016 09:48:32.443,2360
20/05/2016 09:48:32.447,2362
20/05/2016 09:48:32.451,2363
20/05/2016 09:48:32.455,2359
20/05/2016 09:48:32.459,2350
20/05/2016 09:48:32.463,2337
20/05/2016 09:48:32.467,2323
20/05/2016 09:48:32.471,2311
20/05/2016 09:48:32.475,2302
20/05/2016 09:48:32.479,2297
20/05/2016 09:48:32.483,2296
20/05/2016 09:48:32.487,2296
20/05/2016 09:48:32.491,2295
20/05/2016 09:48:32.495,2291
20/05/2016 09:48:32.499,2284
20/05/2016 09:48:32.503,2279
20/05/2016 09:48:32.507,2282
20/05/2016 09:48:32.511,2302
20/05/2016 09:48:32.515,2346
20/05/2016 09:48:32.519,2413
20/05/2016 09:48:32.523,2489
20/05/2016 09:48:32.527,2545
20/05/2016 09:48:32.531,2558
20/05/2016 09:48:32.535,2514
20/05/2016 09:48:32.539,2429
20/05/2016 09:48:32.543,2331
20/05/2016 09:48:32.547,2253
20/05/2016 09:48:32.551,2213
20/05/2016 09:48:32.555,2207
20/05/2016 09:48:32.559,2220
20/05/2016 09:48:32.563,2234
20/05/2016 09:48:32.567,2242
20/05/2016 09:48:32.571,2244
20/05/2016 09:48:32.575,2243
20/05/2016 09:48:32.579,2241
20/05/2016 09:48:32.583,2238
20/05/2016 09:48:32.587,2234
20/05/2016 09:48:32.591,2229
20/05/2016 09:48:32.595,2226
20/05/2016 09:48:32.599,2225
20/05/2016 09:48:32.603,2226
20/05/2016 09:48:32.607,2229
20/05/2016 09:48:32.611,2232
20/05/2016 09:48:32.615,2234
20/05/2016 09:48:32.619,2235
20/05/2016 09:48:32.623,2235
20/05/2016 09:48:32.627,2235
20/05/2016 09:48:32.631,2234
20/05/2016 09:48:32.635,2232
20/05/2016 09:48:32.639,2229
20/05/2016 09:48:32.643,2229
20/05/2016 09:48:32.647,2232
20/05/2016 09:48:32.651,2238
20/05/2016 09:48:32.655,2244
20/05/2016 09:48:32.659,2249
20/05/2016 09:48:32.663,2252
20/05/2016 09:48:32.667,2251
20/05/2016 09:48:32.671,2250
20/05/2016 09:48:32.675,2249
20/05/2016 09:48:32.679,2251
20/05/2016 09:48:32.683,2254
20/05/2016 09:48:32.687,2258
20/05/2016 09:48:32.691,2262
20/05/2016 09:48:32.695,2266
20/05/2016 09:48:32.699,2270
20/05/2016 09:48:32.703,2272
20/05/2016 09:48:32.707,2273
20/05/2016 09:48:32.711,2273
20/05/2016 09:48:32.715,2273
20/05/2016 09:48:32.719,2275
20/05/2016 09:48:32.723,2278
20/05/2016 09:48:32.727,2282
20/05/2016 09:48:32.731,2285
20/05/2016 09:48:32.735,2283
20/05/2016 09:48:32.739,2276
20/05/2016 09:48:32.743,2265
20/05/2016 09:48:32.747,2253
20/05/2016 09:48:32.751,2244
20/05/2016 09:48:32.755,2237
20/05/2016 09:48:32.759,2232
20/05/2016 09:48:32.763,2226
20/05/2016 09:48:32.767,2218
20/05/2016 09:48:32.771,2208
20/05/2016 09:48:32.775,2198
20/05/2016 09:48:32.779,2188
20/05/2016 09:48:32.783,2180
20/05/2016 09:48:32.787,2173
20/05/2016 09:48:32.791,2168
20/05/2016 09:48:32.795,2164
20/05/2016 09:48:32.799,2160
20/05/2016 09:48:32.803,2157
20/05/2016 09:48:32.807,2154
20/05/2016 09:48:32.811,2152
20/05/2016 09:48:32.815,2150
20/05/2016 09:48:32.819,2147
20/05/2016 09:48:32.823,2142
20/05/2016 09:48:32.827,2137
20/05/2016 09:48:32.831,2133
20/05/2016 09:48:32.835,2129
20/05/2016 09:48:32.839,2128
20/05/2016 09:48:32.843,2128
20/05/2016 09:48:32.847,2129
20/05/2016 09:48:32.851,2131
20/05/2016 09:48:32.855,2132
20/05/2016 09:48:32.859,2134
20/05/2016 09:48:32.863,2137
20/05/2016 09:48:32.867,2140
20/05/2016 09:48:32.871,2145
20/05/2016 09:48:32.875,2154
20/05/2016 09:48:32.879,2165
20/05/2016 09:48:32.883,2179
20/05/2016 09:48:32.887,2195
20/05/2016 09:48:32.891,2211
20/05/2016 09:48:32.895,2225
20/05/2016 09:48:32.899,2235
20/05/2016 09:48:32.903,2240
20/05/2016 09:48:32.907,2241
20/05/2016 09:48:32.911,2240
20/05/2016 09:48:32.915,2239
20/05/2016 09:48:32.919,2238
20/05/2016 09:48:32.923,2233
20/05/2016 09:48:32.927,2224
20/05/2016 09:48:32.931,2211
20/05/2016 09:48:32.935,2198
20/05/2016 09:48:32.939,2190
20/05/2016 09:48:32.943,2191
20/05/2016 09:48:32.947,2199
20/05/2016 09:48:32.951,2208
20/05/2016 09:48:32.955,2212
20/05/2016 09:48:32.959,2211
20/05/2016 09:48:32.963,2205
20/05/2016 09:48:32.967,2200
20/05/2016 09:48:32.971,2196
20/05/2016 09:48:32.975,2194
20/05/2016 09:48:32.979,2192
20/05/2016 09:48:32.983,2188
20/05/2016 09:48:32.987,2181
20/05/2016 09:48:32.991,2170
20/05/2016 09:48:32.995,2157
20/05/2016 09:48:32.999,2144
20/05/2016 09:48:33.003,2134
20/05/2016 09:48:33.007,2128
20/05/2016 09:48:33.011,2124
20/05/2016 09:48:33.015,2118
20/05/2016 09:48:33.019,2109
20/05/2016 09:48:33.023,2096
20/05/2016 09:48:33.027,2082
20/05/2016 09:48:33.031,2072
20/05/2016 09:48:33.035,2071
20/05/2016 09:48:33.039,2080
20/05/2016 09:48:33.043,2098
20/05/2016 09:48:33.047,2117
20/05/2016 09:48:33.051,2128
20/05/2016 09:48:33.055,2126
20/05/2016 09:48:33.059,2111
20/05/2016 09:48:33.063,2087
20/05/2016 09:48:33.067,2060
20/05/2016 09:48:33.071,2040
20/05/2016 09:48:33.075,2027
20/05/2016 09:48:33.079,2021
20/05/2016 09:48:33.083,2019
20/05/2016 09:48:33.087,2022
20/05/2016 09:48:33.091,2027
20/05/2016 09:48:33.095,2034
20/05/2016 09:48:33.099,2038
20/05/2016 09:48:33.103,2034
20/05/2016 09:48:33.107,2018
20/05/2016 09:48:33.111,1991
20/05/2016 09:48:33.115,1961
20/05/2016 09:48:33.119,1931
20/05/2016 09:48:33.123,1906
20/05/2016 09:48:33.127,1887
20/05/2016 09:48:33.131,1872
20/05/2016 09:48:33.135,1859
20/05/2016 09:48:33.139,1848
20/05/2016 09:48:33.143,1844
20/05/2016 09:48:33.147,1849
20/05/2016 09:48:33.151,1859
20/05/2016 09:48:33.155,1868
20/05/2016 09:48:33.159,1865
20/05/2016 09:48:33.163,1843
20/05/2016 09:48:33.167,1797
20/05/2016 09:48:33.171,1739
20/05/2016 09:48:33.175,1683
20/05/2016 09:48:33.179,1648
20/05/2016 09:48:33.183,1648
20/05/2016 09:48:33.187,1683
20/05/2016 09:48:33.191,1745
20/05/2016 09:48:33.195,1816
20/05/2016 09:48:33.199,1886
20/05/2016 09:48:33.203,1941
20/05/2016 09:48:33.207,1966
20/05/2016 09:48:33.211,1946
20/05/2016 09:48:33.215,1872
20/05/2016 09:48:33.219,1752
20/05/2016 09:48:33.223,1609
20/05/2016 09:48:33.227,1484
20/05/2016 09:48:33.231,1407
20/05/2016 09:48:33.235,1389
20/05/2016 09:48:33.239,1415
20/05/2016 09:48:33.243,1461
20/05/2016 09:48:33.247,1507
20/05/2016 09:48:33.251,1542
20/05/2016 09:48:33.255,1573
20/05/2016 09:48:33.259,1601
20/05/2016 09:48:33.263,1629
20/05/2016 09:48:33.267,1649
20/05/2016 09:48:33.271,1660
20/05/2016 09:48:33.275,1662
20/05/2016 09:48:33.279,1660
20/05/2016 09:48:33.283,1667
20/05/2016 09:48:33.287,1685
20/05/2016 09:48:33.291,1715
20/05/2016 09:48:33.295,1755
20/05/2016 09:48:33.299,1797
20/05/2016 09:48:33.303,1838
20/05/2016 09:48:33.307,1874
20/05/2016 09:48:33.311,1905
20/05/2016 09:48:33.315,1932
20/05/2016 09:48:33.319,1955
20/05/2016 09:48:33.323,1975
20/05/2016 09:48:33.327,1992
20/05/2016 09:48:33.331,2005
20/05/2016 09:48:33.335,2014
20/05/2016 09:48:33.339,2019
20/05/2016 09:48:33.343,2022
20/05/2016 09:48:33.347,2025
20/05/2016 09:48:33.351,2030
20/05/2016 09:48:33.355,2036
20/05/2016 09:48:33.359,2041
20/05/2016 09:48:33.363,2043
20/05/2016 09:48:33.367,2043
20/05/2016 09:48:33.371,2043
20/05/2016 09:48:33.375,2044
20/05/2016 09:48:33.379,2046
20/05/2016 09:48:33.383,2050
20/05/2016 09:48:33.387,2055
20/05/2016 09:48:33.391,2059
20/05/2016 09:48:33.395,2064
20/05/2016 09:48:33.399,2067
20/05/2016 09:48:33.403,2069
20/05/2016 09:48:33.407,2070
20/05/2016 09:48:33.411,2070
20/05/2016 09:48:33.415,2071
20/05/2016 09:48:33.419,2073
20/05/2016 09:48:33.423,2077
20/05/2016 09:48:33.427,2083
